# field on trajectory
# s[mm] rx[mm] ry[mm] rz[mm] bx[T] by[T] bz[T]
0.0000000000000000e+00 +6.4329999999999998e+00 +0.0000000000000000e+00 +0.0000000000000000e+00 +3.4823572999258490e-04 -5.2843030413790293e-01 -2.1525910594835402e-03
1.0000000000000001e-01 +6.4329996402335734e+00 +0.0000000000000000e+00 +9.9999999999137099e-02 +3.4826379400370363e-04 -5.2843016708597268e-01 -2.1527571722987971e-03
2.0000000000000001e-01 +6.4329985609344211e+00 +0.0000000000000000e+00 +1.9999999999309692e-01 +3.4829988516810341e-04 -5.2843002491035362e-01 -2.1529179361635814e-03
3.0000000000000004e-01 +6.4329967621027357e+00 +0.0000000000000000e+00 +2.9999999997670224e-01 +3.4834184118960571e-04 -5.2842988488547438e-01 -2.1530717789099343e-03
4.0000000000000002e-01 +6.4329942437387073e+00 +0.0000000000000000e+00 +3.9999999994477575e-01 +3.4838749977372736e-04 -5.2842975428586347e-01 -2.1532171283703255e-03
5.0000000000000000e-01 +6.4329910058425126e+00 +0.0000000000000000e+00 +4.9999999989214017e-01 +3.4843469862018330e-04 -5.2842964038609652e-01 -2.1533524123825676e-03
5.9999999999999998e-01 +6.4329870484143061e+00 +0.0000000000000000e+00 +5.9999999981361829e-01 +3.4848127541539002e-04 -5.2842955046074180e-01 -2.1534760587947166e-03
6.9999999999999996e-01 +6.4329823714542096e+00 +0.0000000000000000e+00 +6.9999999970403282e-01 +3.4852506782496876e-04 -5.2842949178431009e-01 -2.1535864954699805e-03
7.9999999999999993e-01 +6.4329769749623020e+00 +0.0000000000000000e+00 +7.9999999955820644e-01 +3.4856391348624973e-04 -5.2842947163120035e-01 -2.1536821502916299e-03
8.9999999999999991e-01 +6.4329708589386110e+00 +0.0000000000000000e+00 +8.9999999937096198e-01 +3.4859565000077498e-04 -5.2842949727564792e-01 -2.1537614511679031e-03
9.9999999999999989e-01 +6.4329640233831009e+00 +0.0000000000000000e+00 +9.9999999913712223e-01 +3.4861811492680308e-04 -5.2842957599166995e-01 -2.1538228260369122e-03
1.0999999999999999e+00 +6.4329564682956644e+00 +0.0000000000000000e+00 +1.0999999988515099e+00 +3.4862991220588736e-04 -5.2842971220639112e-01 -2.1538651813049316e-03
1.2000000000000000e+00 +6.4329481936761166e+00 +0.0000000000000000e+00 +1.1999999985089476e+00 +3.4863271147878965e-04 -5.2842989896028303e-01 -2.1538893371382895e-03
1.3000000000000000e+00 +6.4329391995242053e+00 +0.0000000000000000e+00 +1.2999999981042580e+00 +3.4862894881886063e-04 -5.2843012644732978e-01 -2.1538965921411904e-03
1.4000000000000001e+00 +6.4329294858396224e+00 +0.0000000000000000e+00 +1.3999999976322639e+00 +3.4862106030878663e-04 -5.2843038486174565e-01 -2.1538882449157561e-03
1.5000000000000002e+00 +6.4329190526220179e+00 +0.0000000000000000e+00 +1.4999999970877880e+00 +3.4861148204686160e-04 -5.2843066439803177e-01 -2.1538655940583360e-03
1.6000000000000003e+00 +6.4329078998710125e+00 +0.0000000000000000e+00 +1.5999999964656531e+00 +3.4860265015325859e-04 -5.2843095525103367e-01 -2.1538299381558138e-03
1.7000000000000004e+00 +6.4328960275862119e+00 +0.0000000000000000e+00 +1.6999999957606817e+00 +3.4859700077630190e-04 -5.2843124761599736e-01 -2.1537825757819251e-03
1.8000000000000005e+00 +6.4328834357672191e+00 +0.0000000000000000e+00 +1.7999999949676966e+00 +3.4859697009873686e-04 -5.2843153168862689e-01 -2.1537248054935569e-03
1.9000000000000006e+00 +6.4328701244136495e+00 +0.0000000000000000e+00 +1.8999999940815202e+00 +3.4860499434400196e-04 -5.2843179766514081e-01 -2.1536579258270680e-03
2.0000000000000004e+00 +6.4328560935251433e+00 +0.0000000000000000e+00 +1.9999999930969754e+00 +3.4862350978249969e-04 -5.2843203574232966e-01 -2.1535832352945852e-03
2.1000000000000005e+00 +6.4328413431013773e+00 +0.0000000000000000e+00 +2.0999999920088848e+00 +3.4865428673291757e-04 -5.2843224034070679e-01 -2.1535018222533196e-03
2.2000000000000006e+00 +6.4328258731420727e+00 +0.0000000000000000e+00 +2.1999999908120706e+00 +3.4869643154680248e-04 -5.2843242277356950e-01 -2.1534139345252921e-03
2.3000000000000007e+00 +6.4328096836469797e+00 +0.0000000000000000e+00 +2.2999999895013561e+00 +3.4874838461794314e-04 -5.2843259857723457e-01 -2.1533196097835369e-03
2.4000000000000008e+00 +6.4327927746158577e+00 +0.0000000000000000e+00 +2.3999999880715639e+00 +3.4880858639020201e-04 -5.2843278328783527e-01 -2.1532188856781763e-03
2.5000000000000009e+00 +6.4327751460484546e+00 +0.0000000000000000e+00 +2.4999999865175164e+00 +3.4887547736159010e-04 -5.2843299244127862e-01 -2.1531117998343351e-03
2.6000000000000010e+00 +6.4327567979444851e+00 +0.0000000000000000e+00 +2.5999999848340360e+00 +3.4894749808834005e-04 -5.2843324157320559e-01 -2.1529983898500604e-03
2.7000000000000011e+00 +6.4327377303036082e+00 +0.0000000000000000e+00 +2.6999999830159456e+00 +3.4902308918898086e-04 -5.2843354621894889e-01 -2.1528786932942345e-03
2.8000000000000012e+00 +6.4327179431254091e+00 +0.0000000000000000e+00 +2.7999999810580678e+00 +3.4910069134841100e-04 -5.2843392191349114e-01 -2.1527527477044920e-03
2.9000000000000012e+00 +6.4326974364093754e+00 +0.0000000000000000e+00 +2.8999999789552251e+00 +3.4917874532197309e-04 -5.2843438419142452e-01 -2.1526205905851295e-03
3.0000000000000013e+00 +6.4326762101548773e+00 +0.0000000000000000e+00 +2.9999999767022398e+00 +3.4925569193952876e-04 -5.2843494858690820e-01 -2.1524822594050268e-03
3.1000000000000014e+00 +6.4326542643611457e+00 +0.0000000000000000e+00 +3.0999999742939348e+00 +3.4933026151957901e-04 -5.2843562356460561e-01 -2.1523377733532962e-03
3.2000000000000015e+00 +6.4326315990272649e+00 +0.0000000000000000e+00 +3.1999999717251324e+00 +3.4940234204313488e-04 -5.2843638931251258e-01 -2.1521870786258162e-03
3.3000000000000016e+00 +6.4326082141521965e+00 +0.0000000000000000e+00 +3.2999999689906550e+00 +3.4947211081368893e-04 -5.2843721894890316e-01 -2.1520301031786359e-03
3.4000000000000017e+00 +6.4325841097348153e+00 +0.0000000000000000e+00 +3.3999999660853244e+00 +3.4953974502171668e-04 -5.2843808559129890e-01 -2.1518667749755387e-03
3.5000000000000018e+00 +6.4325592857739462e+00 +0.0000000000000000e+00 +3.4999999630039635e+00 +3.4960542173418849e-04 -5.2843896235641508e-01 -2.1516970219896260e-03
3.6000000000000019e+00 +6.4325337422683990e+00 +0.0000000000000000e+00 +3.5999999597413943e+00 +3.4966931788407924e-04 -5.2843982236010978e-01 -2.1515207722049177e-03
3.7000000000000020e+00 +6.4325074792170076e+00 +0.0000000000000000e+00 +3.6999999562924391e+00 +3.4973161025987875e-04 -5.2844063871733082e-01 -2.1513379536179382e-03
3.8000000000000020e+00 +6.4324804966186644e+00 +0.0000000000000000e+00 +3.7999999526519201e+00 +3.4979247549510046e-04 -5.2844138454206324e-01 -2.1511484942393099e-03
3.9000000000000021e+00 +6.4324527944723577e+00 +0.0000000000000000e+00 +3.8999999488146599e+00 +3.4985209005778940e-04 -5.2844203294727843e-01 -2.1509523220953472e-03
4.0000000000000018e+00 +6.4324243727772101e+00 +0.0000000000000000e+00 +3.9999999447754804e+00 +3.4991063024002975e-04 -5.2844255704487963e-01 -2.1507493652296455e-03
4.1000000000000014e+00 +6.4323952315325110e+00 +0.0000000000000000e+00 +4.0999999405292042e+00 +3.4996824791491617e-04 -5.2844293840176904e-01 -2.1505396902197771e-03
4.2000000000000011e+00 +6.4323653707377417e+00 +0.0000000000000000e+00 +4.1999999360706530e+00 +3.5002499790803284e-04 -5.2844319240901128e-01 -2.1503239177296852e-03
4.3000000000000007e+00 +6.4323347903925541e+00 +0.0000000000000000e+00 +4.2999999313946500e+00 +3.5008091083067028e-04 -5.2844334291488737e-01 -2.1501028069738442e-03
4.4000000000000004e+00 +6.4323034904967429e+00 +0.0000000000000000e+00 +4.3999999264960170e+00 +3.5013601733558357e-04 -5.2844341376903980e-01 -2.1498771172052279e-03
4.5000000000000000e+00 +6.4322714710502096e+00 +0.0000000000000000e+00 +4.4999999213695761e+00 +3.5019034812092239e-04 -5.2844342882256623e-01 -2.1496476077177279e-03
4.5999999999999996e+00 +6.4322387320529337e+00 +0.0000000000000000e+00 +4.5999999160101508e+00 +3.5024393393416202e-04 -5.2844341192811395e-01 -2.1494150378485867e-03
4.6999999999999993e+00 +6.4322052735049366e+00 +0.0000000000000000e+00 +4.6999999104125632e+00 +3.5029680557603567e-04 -5.2844338693997173e-01 -2.1491801669808212e-03
4.7999999999999989e+00 +6.4321710954062512e+00 +0.0000000000000000e+00 +4.7999999045716351e+00 +3.5034899390446893e-04 -5.2844337771416638e-01 -2.1489437545456551e-03
4.8999999999999986e+00 +6.4321361977568898e+00 +0.0000000000000000e+00 +4.8999998984821893e+00 +3.5040052983851454e-04 -5.2844340810855384e-01 -2.1487065600249507e-03
4.9999999999999982e+00 +6.4321005805568099e+00 +0.0000000000000000e+00 +4.9999998921390487e+00 +3.5045144436228812e-04 -5.2844350198291534e-01 -2.1484693429536360e-03
5.0999999999999979e+00 +6.4320642438058826e+00 +0.0000000000000000e+00 +5.0999998855370352e+00 +3.5050175584259232e-04 -5.2844367789193258e-01 -2.1482327683003404e-03
5.1999999999999975e+00 +6.4320271875038708e+00 +0.0000000000000000e+00 +5.1999998786709716e+00 +3.5055143196100093e-04 -5.2844393316281435e-01 -2.1479971225741305e-03
5.2999999999999972e+00 +6.4319894116504299e+00 +0.0000000000000000e+00 +5.2999998715356798e+00 +3.5060042775367608e-04 -5.2844425981485021e-01 -2.1477625976402282e-03
5.3999999999999968e+00 +6.4319509162451185e+00 +0.0000000000000000e+00 +5.3999998641259825e+00 +3.5064869829674102e-04 -5.2844464986624740e-01 -2.1475293853335633e-03
5.4999999999999964e+00 +6.4319117012874081e+00 +0.0000000000000000e+00 +5.4999998564367019e+00 +3.5069619870834812e-04 -5.2844509533406903e-01 -2.1472976774569654e-03
5.5999999999999961e+00 +6.4318717667766947e+00 +0.0000000000000000e+00 +5.5999998484626605e+00 +3.5074288415074819e-04 -5.2844558823417509e-01 -2.1470676657793447e-03
5.6999999999999957e+00 +6.4318311127123113e+00 +0.0000000000000000e+00 +5.6999998401986796e+00 +3.5078870983235798e-04 -5.2844612058116402e-01 -2.1468395420338833e-03
5.7999999999999954e+00 +6.4317897390935350e+00 +0.0000000000000000e+00 +5.7999998316395818e+00 +3.5083363100982772e-04 -5.2844668438831266e-01 -2.1466134979162147e-03
5.8999999999999950e+00 +6.4317476459196010e+00 +0.0000000000000000e+00 +5.8999998227801891e+00 +3.5087760299010992e-04 -5.2844727166751604e-01 -2.1463897250826132e-03
5.9999999999999947e+00 +6.4317048331897135e+00 +0.0000000000000000e+00 +5.9999998136153234e+00 +3.5092058113252449e-04 -5.2844787442922958e-01 -2.1461684151481762e-03
6.0999999999999943e+00 +6.4316613009030545e+00 +0.0000000000000000e+00 +6.0999998041398076e+00 +3.5096260071541374e-04 -5.2844848630317010e-01 -2.1459496846479393e-03
6.1999999999999940e+00 +6.4316170490587927e+00 +0.0000000000000000e+00 +6.1999997943484626e+00 +3.5100401652145958e-04 -5.2844910740130913e-01 -2.1457333499477226e-03
6.2999999999999936e+00 +6.4315720776560843e+00 +0.0000000000000000e+00 +6.2999997842361113e+00 +3.5104526322290010e-04 -5.2844973945682494e-01 -2.1455191524004540e-03
6.3999999999999932e+00 +6.4315263866940713e+00 +0.0000000000000000e+00 +6.3999997737975747e+00 +3.5108677551361309e-04 -5.2845038420353085e-01 -2.1453068333916006e-03
6.4999999999999929e+00 +6.4314799761718779e+00 +0.0000000000000000e+00 +6.4999997630276756e+00 +3.5112898810967560e-04 -5.2845104337590443e-01 -2.1450961343404567e-03
6.5999999999999925e+00 +6.4314328460886090e+00 +0.0000000000000000e+00 +6.5999997519212359e+00 +3.5117233574992381e-04 -5.2845171870911589e-01 -2.1448867967014352e-03
6.6999999999999922e+00 +6.4313849964433460e+00 +0.0000000000000000e+00 +6.6999997404730767e+00 +3.5121725319651066e-04 -5.2845241193905745e-01 -2.1446785619653507e-03
6.7999999999999918e+00 +6.4313364272351485e+00 +0.0000000000000000e+00 +6.7999997286780207e+00 +3.5126417523546433e-04 -5.2845312480237128e-01 -2.1444711716607093e-03
6.8999999999999915e+00 +6.4312871384630483e+00 +0.0000000000000000e+00 +6.8999997165308891e+00 +3.5131353667724362e-04 -5.2845385903647979e-01 -2.1442643673549940e-03
6.9999999999999911e+00 +6.4312371301260471e+00 +0.0000000000000000e+00 +6.9999997040265036e+00 +3.5136577235729430e-04 -5.2845461637961333e-01 -2.1440578906559509e-03
7.0999999999999908e+00 +6.4311864022231164e+00 +0.0000000000000000e+00 +7.0999996911596863e+00 +3.5142115356218498e-04 -5.2845539680971343e-01 -2.1438515836819739e-03
7.1999999999999904e+00 +6.4311349547531975e+00 +0.0000000000000000e+00 +7.1999996779252591e+00 +3.5147929727772064e-04 -5.2845619326054116e-01 -2.1436456904479406e-03
7.2999999999999901e+00 +6.4310827877152095e+00 +0.0000000000000000e+00 +7.2999996643180429e+00 +3.5153965687364830e-04 -5.2845699690425507e-01 -2.1434405554100365e-03
7.3999999999999897e+00 +6.4310299011080616e+00 +0.0000000000000000e+00 +7.3999996503328598e+00 +3.5160168567337083e-04 -5.2845779891243150e-01 -2.1432365229869703e-03
7.4999999999999893e+00 +6.4309762949306659e+00 +0.0000000000000000e+00 +7.4999996359645316e+00 +3.5166483695205981e-04 -5.2845859045604293e-01 -2.1430339375585247e-03
7.5999999999999890e+00 +6.4309219691819477e+00 +0.0000000000000000e+00 +7.5999996212078802e+00 +3.5172856393476866e-04 -5.2845936270543759e-01 -2.1428331434641154e-03
7.6999999999999886e+00 +6.4308669238608598e+00 +0.0000000000000000e+00 +7.6999996060577267e+00 +3.5179231979454547e-04 -5.2846010683031897e-01 -2.1426344850013581e-03
7.7999999999999883e+00 +6.4308111589663923e+00 +0.0000000000000000e+00 +7.7999995905088921e+00 +3.5185555765054622e-04 -5.2846081399972611e-01 -2.1424383064246231e-03
7.8999999999999879e+00 +6.4307546744975870e+00 +0.0000000000000000e+00 +7.8999995745561993e+00 +3.5191773056614820e-04 -5.2846147538201194e-01 -2.1422449519436075e-03
7.9999999999999876e+00 +6.4306974704535467e+00 +0.0000000000000000e+00 +7.9999995581944692e+00 +3.5197829154706191e-04 -5.2846208214482382e-01 -2.1420547657218935e-03
8.0999999999999872e+00 +6.4306395468334490e+00 +0.0000000000000000e+00 +8.0999995414185229e+00 +3.5203680118658698e-04 -5.2846262752611661e-01 -2.1418680000831660e-03
8.1999999999999869e+00 +6.4305809036365540e+00 +0.0000000000000000e+00 +8.1999995242231822e+00 +3.5209325058159193e-04 -5.2846311304807858e-01 -2.1416845401626612e-03
8.2999999999999865e+00 +6.4305215408622036e+00 +0.0000000000000000e+00 +8.2999995066032692e+00 +3.5214773833393612e-04 -5.2846354230526771e-01 -2.1415041793476485e-03
8.3999999999999861e+00 +6.4304614585098152e+00 +0.0000000000000000e+00 +8.3999994885536058e+00 +3.5220036288874287e-04 -5.2846391889374900e-01 -2.1413267110825182e-03
8.4999999999999858e+00 +6.4304006565788798e+00 +0.0000000000000000e+00 +8.4999994700690138e+00 +3.5225122252985233e-04 -5.2846424641114109e-01 -2.1411519288705252e-03
8.5999999999999854e+00 +6.4303391350689534e+00 +0.0000000000000000e+00 +8.5999994511443152e+00 +3.5230041537527698e-04 -5.2846452845666148e-01 -2.1409796262755283e-03
8.6999999999999851e+00 +6.4302768939796549e+00 +0.0000000000000000e+00 +8.6999994317743319e+00 +3.5234803937266002e-04 -5.2846476863117420e-01 -2.1408095969237366e-03
8.7999999999999847e+00 +6.4302139333106600e+00 +0.0000000000000000e+00 +8.7999994119538858e+00 +3.5239419229473505e-04 -5.2846497053723374e-01 -2.1406416345054477e-03
8.8999999999999844e+00 +6.4301502530616972e+00 +0.0000000000000000e+00 +8.8999993916777971e+00 +3.5243897173478926e-04 -5.2846513777913295e-01 -2.1404755327767942e-03
8.9999999999999840e+00 +6.4300858532325407e+00 +0.0000000000000000e+00 +8.9999993709408894e+00 +3.5248247510212804e-04 -5.2846527396294762e-01 -2.1403110855614739e-03
9.0999999999999837e+00 +6.4300207338230084e+00 +0.0000000000000000e+00 +9.0999993497379847e+00 +3.5252480637721771e-04 -5.2846538344719340e-01 -2.1401482855591715e-03
9.1999999999999833e+00 +6.4299548948329539e+00 +0.0000000000000000e+00 +9.1999993280639032e+00 +3.5256609654031032e-04 -5.2846547359330331e-01 -2.1399879207553304e-03
9.2999999999999829e+00 +6.4298883362622572e+00 +0.0000000000000000e+00 +9.2999993059134685e+00 +3.5260648356213369e-04 -5.2846555251122374e-01 -2.1398309779471665e-03
9.3999999999999826e+00 +6.4298210581108126e+00 +0.0000000000000000e+00 +9.3999992832815025e+00 +3.5264610568976805e-04 -5.2846562830834842e-01 -2.1396784439223523e-03
9.4999999999999822e+00 +6.4297530603785198e+00 +0.0000000000000000e+00 +9.4999992601628254e+00 +3.5268510145467207e-04 -5.2846570908944435e-01 -2.1395313054584980e-03
9.5999999999999819e+00 +6.4296843430652713e+00 +0.0000000000000000e+00 +9.5999992365522608e+00 +3.5272360968070923e-04 -5.2846580295658063e-01 -2.1393905493226331e-03
9.6999999999999815e+00 +6.4296149061709427e+00 +0.0000000000000000e+00 +9.6999992124446308e+00 +3.5276176949217359e-04 -5.2846591800905640e-01 -2.1392571622706846e-03
9.7999999999999812e+00 +6.4295447496953795e+00 +0.0000000000000000e+00 +9.7999991878347572e+00 +3.5279972032181705e-04 -5.2846606234332771e-01 -2.1391321310469482e-03
9.8999999999999808e+00 +6.4294738736383872e+00 +0.0000000000000000e+00 +9.8999991627174602e+00 +3.5283760191887433e-04 -5.2846624405293618e-01 -2.1390164423835604e-03
9.9999999999999805e+00 +6.4294022779997215e+00 +0.0000000000000000e+00 +9.9999991370875634e+00 +3.5287555435708991e-04 -5.2846647122843571e-01 -2.1389110829999644e-03
1.0099999999999980e+01 +6.4293299627790770e+00 +0.0000000000000000e+00 +1.0099999110939889e+01 +3.5291373641975553e-04 -5.2846675052776049e-01 -2.1388165450171074e-03
1.0199999999999980e+01 +6.4292569279760761e+00 +0.0000000000000000e+00 +1.0199999084269256e+01 +3.5295238061482331e-04 -5.2846708288945499e-01 -2.1387313420344854e-03
1.0299999999999979e+01 +6.4291831735902703e+00 +0.0000000000000000e+00 +1.0299999057070490e+01 +3.5299173782648658e-04 -5.2846746782516618e-01 -2.1386534927053127e-03
1.0399999999999979e+01 +6.4291086996211391e+00 +0.0000000000000000e+00 +1.0399999029338410e+01 +3.5303205890486821e-04 -5.2846790484989103e-01 -2.1385810153101044e-03
1.0499999999999979e+01 +6.4290335060680910e+00 +0.0000000000000000e+00 +1.0499999001067838e+01 +3.5307359466465663e-04 -5.2846839348205898e-01 -2.1385119277478170e-03
1.0599999999999978e+01 +6.4289575929304652e+00 +0.0000000000000000e+00 +1.0599998972253596e+01 +3.5311659588374133e-04 -5.2846893324361799e-01 -2.1384442475270099e-03
1.0699999999999978e+01 +6.4288809602075307e+00 +0.0000000000000000e+00 +1.0699998942890504e+01 +3.5316131330183955e-04 -5.2846952366011890e-01 -2.1383759917570026e-03
1.0799999999999978e+01 +6.4288036078984883e+00 +0.0000000000000000e+00 +1.0799998912973386e+01 +3.5320799761912036e-04 -5.2847016426079951e-01 -2.1383051771390496e-03
1.0899999999999977e+01 +6.4287255360024682e+00 +0.0000000000000000e+00 +1.0899998882497060e+01 +3.5325689949482279e-04 -5.2847085457866971e-01 -2.1382298199575170e-03
1.0999999999999977e+01 +6.4286467445185353e+00 +0.0000000000000000e+00 +1.0999998851456350e+01 +3.5330826954586868e-04 -5.2847159415059652e-01 -2.1381479360710835e-03
1.1099999999999977e+01 +6.4285672334456878e+00 +0.0000000000000000e+00 +1.1099998819846077e+01 +3.5336224181520211e-04 -5.2847237978724593e-01 -2.1380580480520463e-03
1.1199999999999976e+01 +6.4284870027828607e+00 +0.0000000000000000e+00 +1.1199998787661059e+01 +3.5341848408666353e-04 -5.2847319737983767e-01 -2.1379607070184051e-03
1.1299999999999976e+01 +6.4284060525289464e+00 +0.0000000000000000e+00 +1.1299998754896119e+01 +3.5347654734564909e-04 -5.2847403008632132e-01 -2.1378569717271398e-03
1.1399999999999975e+01 +6.4283243826828178e+00 +0.0000000000000000e+00 +1.1399998721546080e+01 +3.5353598229202521e-04 -5.2847486106099595e-01 -2.1377479014845786e-03
1.1499999999999975e+01 +6.4282419932433497e+00 +0.0000000000000000e+00 +1.1499998687605760e+01 +3.5359633933371322e-04 -5.2847567345442648e-01 -2.1376345561592365e-03
1.1599999999999975e+01 +6.4281588842094424e+00 +0.0000000000000000e+00 +1.1599998653069981e+01 +3.5365716858027643e-04 -5.2847645041335944e-01 -2.1375179961946691e-03
1.1699999999999974e+01 +6.4280750555800434e+00 +0.0000000000000000e+00 +1.1699998617933565e+01 +3.5371801983651122e-04 -5.2847717508063985e-01 -2.1373992826222948e-03
1.1799999999999974e+01 +6.4279905073541723e+00 +0.0000000000000000e+00 +1.1799998582191330e+01 +3.5377844259603996e-04 -5.2847783059512798e-01 -2.1372794770742193e-03
