# multipoles
# s[mm] polynom_b[n=0][T/m^n] polynom_b[n=1][T/m^n] polynom_b[n=2][T/m^n] polynom_b[n=3][T/m^n] polynom_b[n=4][T/m^n] polynom_b[n=5][T/m^n] polynom_b[n=6][T/m^n] 
+0.0000000000000000e+00 -5.2843668589055970e-01 +1.1215352854058538e+00 +1.0090287436652931e+01 +3.3341986400739096e+01 -9.5248647737263218e+02 -7.6196348093293695e+04 +1.1880474345232584e+07 
+1.0000000000000001e-01 -5.2843672869125002e-01 +1.1215439210126201e+00 +1.0080458666308969e+01 +3.3855439654389151e+01 -7.0271427844987795e+02 -8.0889288124649276e+04 +1.0527324123219477e+07 
+2.0000000000000001e-01 -5.2843671876297982e-01 +1.1215531772698142e+00 +1.0066282176009871e+01 +3.4417844174399363e+01 -3.9163083615683786e+02 -8.5873681986395430e+04 +8.9381515659842640e+06 
+3.0000000000000004e-01 -5.2843666853379723e-01 +1.1215623789606921e+00 +1.0048783213522153e+01 +3.5018571005555387e+01 -3.5156413757813922e+01 -9.1041834207861044e+04 +7.1814182395639913e+06 
+4.0000000000000002e-01 -5.2843659043175328e-01 +1.1215708508876394e+00 +1.0028987027582378e+01 +3.5646990673523831e+01 +3.5078869104456550e+02 -9.6286046550092913e+04 +5.3255859338254752e+06 
+5.0000000000000000e-01 -5.2843649688491945e-01 +1.1215779178622560e+00 +1.0007918871341493e+01 +3.6292473475584231e+01 +7.5028407971789807e+02 -1.0149861983009626e+05 +3.4391169578332016e+06 
+5.9999999999999998e-01 -5.2843640032133943e-01 +1.1215829046896661e+00 +9.9866039963585180e+00 +3.6944389935380670e+01 +1.1474093763688579e+03 -1.0657185666943775e+05 +1.5904734999837435e+06 
+6.9999999999999996e-01 -5.2843631316906325e-01 +1.1215851361606257e+00 +9.9660676582894290e+00 +3.7592111026813555e+01 +1.5262441184345785e+03 -1.1139806289937648e+05 -1.5188187101322235e+05 
+7.9999999999999993e-01 -5.2843624785609256e-01 +1.1215839370363068e+00 +9.9473351095689253e+00 +3.8225008613944674e+01 +1.8708679078492944e+03 -1.1586955022690808e+05 -1.7194869855393474e+06 
+8.9999999999999991e-01 -5.2843621681040298e-01 +1.1215786320367986e+00 +9.9314316038381083e+00 +3.8832455789436146e+01 +2.1653603236885078e+03 -1.1987863832650134e+05 -3.0438796709744651e+06 
+9.9999999999999989e-01 -5.2843623245993154e-01 +1.1215685458318232e+00 +9.9193823945324020e+00 +3.9403827128638774e+01 +2.3938009569197320e+03 -1.2331765639632089e+05 -4.0565979649937619e+06 
+1.0999999999999999e+00 -5.2843630401071973e-01 +1.1215533487992335e+00 +9.9119062272970346e+00 +3.9928783610015465e+01 +2.5452706493086362e+03 -1.2610209144394009e+05 -4.7118576248334097e+06 
+1.2000000000000000e+00 -5.2843642782352518e-01 +1.1215341181223228e+00 +9.9084987822752630e+00 +4.0397633734508304e+01 +2.6287322412125077e+03 -1.2823645839170682e+05 -5.0537895383060751e+06 
+1.3000000000000000e+00 -5.2843659705802604e-01 +1.1215122885580016e+00 +9.9083506567383441e+00 +4.0800729477869943e+01 +2.6580895202959136e+03 -1.2974666916696633e+05 -5.1488111155498261e+06 
+1.4000000000000001e+00 -5.2843680487390454e-01 +1.1214892948830046e+00 +9.9106524466236330e+00 +4.1128422120211454e+01 +2.6472463118015339e+03 -1.3065863035496377e+05 -5.0633399261677088e+06 
+1.5000000000000002e+00 -5.2843704443095074e-01 +1.1214665719071268e+00 +9.9145947577253377e+00 +4.1371061835321299e+01 +2.6101062705875897e+03 -1.3099824048922140e+05 -4.8637926973576313e+06 
+1.6000000000000003e+00 -5.2843730888900664e-01 +1.1214455544815529e+00 +9.9193681984074065e+00 +4.1518997421207978e+01 +2.5605730194041544e+03 -1.3079138814017262e+05 -4.6165859497453980e+06 
+1.7000000000000004e+00 -5.2843759140800617e-01 +1.1214276775022571e+00 +9.9241633837022327e+00 +4.1562576176462706e+01 +2.5125500736362769e+03 -1.3006395086682918e+05 -4.3881356240389114e+06 
+1.8000000000000005e+00 -5.2843788514800238e-01 +1.1214143759268473e+00 +9.9281709370392814e+00 +4.1492143388822768e+01 +2.4799408140144551e+03 -1.2884179192650414e+05 -4.2448569428062700e+06 
+1.9000000000000006e+00 -5.2843818326914183e-01 +1.1214070847743232e+00 +9.9305814870888085e+00 +4.1298042312512528e+01 +2.4766485445637068e+03 -1.2715075978868754e+05 -4.2531646589044072e+06 
+2.0000000000000004e+00 -5.2843847893170959e-01 +1.1214072391429364e+00 +9.9305856716740877e+00 +4.0970613613140102e+01 +2.5165764218484874e+03 -1.2501668451247610e+05 -4.4794727004071847e+06 
+2.1000000000000005e+00 -5.2843876691981795e-01 +1.1214160173763699e+00 +9.9275762986731344e+00 +4.0500846757657968e+01 +2.6098024523218878e+03 -1.2244672657940962e+05 -4.9708136168320337e+06 
+2.2000000000000006e+00 -5.2843904842314526e-01 +1.1214335108293561e+00 +9.9217467338285559e+00 +3.9884188643203153e+01 +2.7513455350033423e+03 -1.1938710838247061e+05 -5.6982575865971427e+06 
+2.3000000000000007e+00 -5.2843932621160949e-01 +1.1214595244914449e+00 +9.9134886876163790e+00 +3.9117647374191250e+01 +2.9325147794147260e+03 -1.1577210962418314e+05 -6.6142437176051568e+06 
+2.4000000000000008e+00 -5.2843960305512283e-01 +1.1214938633342493e+00 +9.9031938679086302e+00 +3.8198232155488121e+01 +3.1446193835461936e+03 -1.1153602019017722e+05 -7.6712118043051325e+06 
+2.5000000000000009e+00 -5.2843988172358003e-01 +1.1215363322996723e+00 +9.8912539784458691e+00 +3.7122953711645764e+01 +3.3789686658487885e+03 -1.0661314308917191e+05 -8.8216025103643481e+06 
+2.6000000000000010e+00 -5.2844016498689184e-01 +1.1215867363047392e+00 +9.8780607235703535e+00 +3.5888824209852231e+01 +3.6268719731648143e+03 -1.0093779449807946e+05 -1.0017856945378950e+07 
+2.7000000000000011e+00 -5.2844045561495412e-01 +1.1216448802317476e+00 +9.8640058037271050e+00 +3.4492857618210749e+01 +3.8796387745651637e+03 -9.4444306352752232e+04 -1.1212417157008747e+07 
+2.8000000000000012e+00 -5.2844075637761956e-01 +1.1217105689258398e+00 +9.8494809121879854e+00 +3.2932069851846357e+01 +4.1285787252273913e+03 -8.7067027720461570e+04 -1.2357726460057026e+07 
+2.9000000000000012e+00 -5.2844107004473795e-01 +1.1217836071887604e+00 +9.8348777404053180e+00 +3.1203479018269231e+01 +4.3650015621157590e+03 -7.8740326713874398e+04 -1.3406228953326993e+07 
+3.0000000000000013e+00 -5.2844139938612167e-01 +1.1218637997760481e+00 +9.8205879731028265e+00 +2.9304105617828650e+01 +4.5802172130384160e+03 -6.9398592329441992e+04 -1.4310370112045074e+07 
+3.1000000000000014e+00 -5.2844174621336359e-01 +1.1219505631380837e+00 +9.8069602271091796e+00 +2.7243605142862108e+01 +4.7670203250711502e+03 -5.9057521457336050e+04 -1.5031993780379839e+07 
+3.2000000000000015e+00 -5.2844210867802555e-01 +1.1220417967738781e+00 +9.7942052991918871e+00 +2.5079493220627278e+01 +4.9233294948793564e+03 -4.8039101262521188e+04 -1.5566035544795489e+07 
+3.3000000000000016e+00 -5.2844248405832828e-01 +1.1221350283563392e+00 +9.7825078804928349e+00 +2.2880641846565329e+01 +5.0481488231915137e+03 -3.6737579742278875e+04 -1.5914627698276192e+07 
+3.4000000000000017e+00 -5.2844286963232223e-01 +1.1222277855241676e+00 +9.7720526498429550e+00 +2.0715923561450676e+01 +5.1404824733154492e+03 -2.5547205876056363e+04 -1.6079902033530351e+07 
+3.5000000000000018e+00 -5.2844326267776787e-01 +1.1223175958805387e+00 +9.7630242583942373e+00 +1.8654211450165988e+01 +5.1993349570751716e+03 -1.4862229318227915e+04 -1.6063991162725840e+07 
+3.6000000000000019e+00 -5.2844366047219338e-01 +1.1224019869874160e+00 +9.7556073384030100e+00 +1.6764379255013996e+01 +5.2237109476646083e+03 -5.0769007789875041e+03 -1.5869027543345317e+07 
+3.7000000000000020e+00 -5.2844406029281377e-01 +1.1224784863666748e+00 +9.7499864928858937e+00 +1.5115301281734475e+01 +5.2126154693172875e+03 +3.4145288309617035e+03 -1.5497144332523694e+07 
+3.8000000000000020e+00 -5.2844445941656504e-01 +1.1225446214955339e+00 +9.7463463020090177e+00 +1.3775852486112102e+01 +5.1650537521173010e+03 +1.0217808160664305e+04 -1.4950474603732435e+07 
+3.9000000000000021e+00 -5.2844485512005546e-01 +1.1225979198065208e+00 +9.7448713163922687e+00 +1.2814908420249152e+01 +5.0800313546968091e+03 +1.4938686017918159e+04 -1.4231151889000224e+07 
+4.0000000000000018e+00 -5.2844524467958165e-01 +1.1226359086891700e+00 +9.7457460612407729e+00 +1.2301345040499589e+01 +4.9565540500122488e+03 +1.7182912770876090e+04 -1.3341309521340443e+07 
+4.1000000000000014e+00 -5.2844562611259582e-01 +1.1226569922050651e+00 +9.7490539453175984e+00 +1.2277668702929901e+01 +4.7949293503220479e+03 +1.6710210810678560e+04 -1.2288001757626044e+07 
+4.2000000000000011e+00 -5.2844600021391330e-01 +1.1226631603951154e+00 +9.7544166706349049e+00 +1.2681344507327601e+01 +4.6021202740813815e+03 +1.3893935190950413e+04 -1.1105949511279963e+07 
+4.3000000000000007e+00 -5.2844636842426540e-01 +1.1226573237494184e+00 +9.7613257952495012e+00 +1.3423534131384825e+01 +4.3871199279162847e+03 +9.2612812011629194e+03 -9.8388066143694371e+06 
+4.4000000000000004e+00 -5.2844673218480687e-01 +1.1226423928514206e+00 +9.7692729270123380e+00 +1.4415395979881048e+01 +4.1589205951365720e+03 +3.3394685322855944e+03 -8.5302237314872742e+06 
+4.5000000000000000e+00 -5.2844709293715575e-01 +1.1226212783793068e+00 +9.7777497288395683e+00 +1.5568085149844471e+01 +3.9265136397388810e+03 -3.3442586851774377e+03 -7.2238479099820303e+06 
+4.5999999999999996e+00 -5.2844745212338262e-01 +1.1225968911103565e+00 +9.7862479171446193e+00 +1.6792753280707093e+01 +3.6988895437314904e+03 -1.0262630748679163e+04 -5.9633228022164144e+06 
+4.6999999999999993e+00 -5.2844781118611306e-01 +1.1225721419261190e+00 +9.7942592746833270e+00 +1.8000548364027413e+01 +3.4850376726254640e+03 -1.6888350960771026e+04 -4.7922876050866283e+06 
+4.7999999999999989e+00 -5.2844817156848511e-01 +1.1225499418206955e+00 +9.8012756445074736e+00 +1.9102614480406139e+01 +3.2939464011333330e+03 -2.2694093845338168e+04 -3.7543777124489578e+06 
+4.8999999999999986e+00 -5.2844853471421804e-01 +1.1225332019034862e+00 +9.8067889387062923e+00 +2.0010091699588148e+01 +3.1346029542853871e+03 -2.7152504312867186e+04 -2.8932240063851504e+06 
+4.9999999999999982e+00 -5.2844890206765027e-01 +1.1225248334054045e+00 +9.8102911424338064e+00 +2.0634115965316649e+01 +3.0159933573117346e+03 -2.9736196754226614e+04 -2.2524527093330822e+06 
+5.0999999999999979e+00 -5.2844927541358167e-01 +1.1225269175326777e+00 +9.8114347357564160e+00 +2.0909835472817072e+01 +2.9444945702099012e+03 -3.0066016984818376e+04 -1.8635972707503475e+06 
+5.1999999999999975e+00 -5.2844965789690701e-01 +1.1225380822037190e+00 +9.8105505352499769e+00 +2.0870305656476404e+01 +2.9150041485449328e+03 -2.8370831662380104e+04 -1.7033528933151157e+06 
+5.2999999999999972e+00 -5.2845005300757453e-01 +1.1225560540122590e+00 +9.8081491793780593e+00 +2.0573707008449983e+01 +2.9192677980901208e+03 -2.5036658276581264e+04 -1.7329667062675431e+06 
+5.3999999999999968e+00 -5.2845046423491726e-01 +1.1225785593915878e+00 +9.8047412289748550e+00 +2.0078225205110083e+01 +2.9490328302444295e+03 -2.0449550956011106e+04 -1.9136936637443113e+06 
+5.4999999999999964e+00 -5.2845089506759724e-01 +1.1226033246169258e+00 +9.8008371589997338e+00 +1.9442050941695435e+01 +2.9960483456032639e+03 -1.4995598397173559e+04 -2.2067975922367321e+06 
+5.5999999999999961e+00 -5.2845134899359603e-01 +1.1226280758037945e+00 +9.7969473570351671e+00 +1.8723379984368108e+01 +3.0520652699557577e+03 -9.0609244154155567e+03 -2.5735513770506498e+06 
+5.6999999999999957e+00 -5.2845182950015335e-01 +1.1226505388930568e+00 +9.7935821154675153e+00 +1.7980413654016203e+01 +3.1088365088396731e+03 -3.0316911209195664e+03 -2.9752377055185214e+06 
+5.7999999999999954e+00 -5.2845234007377251e-01 +1.1226684396478290e+00 +9.7912516320885921e+00 +1.7271358929356467e+01 +3.1581169448029723e+03 +2.7059002123496871e+03 -3.3731490756341456e+06 
+5.8999999999999950e+00 -5.2845288420015024e-01 +1.1226795036459705e+00 +9.7904660011818745e+00 +1.6654428691300190e+01 +3.1916636120779126e+03 +7.7656074255703779e+03 -3.7285886329432325e+06 
+5.9999999999999947e+00 -5.2845346536412297e-01 +1.1226814562678253e+00 +9.7917352059118361e+00 +1.6187841999092555e+01 +3.2012358464300432e+03 +1.1761147063015072e+04 -4.0028707776992740e+06 
+6.0999999999999943e+00 -5.2845408529090010e-01 +1.1226728143698481e+00 +9.7954167129358627e+00 +1.5914364357068381e+01 +3.1807292304797570e+03 +1.4403423817812756e+04 -4.1653642160229110e+06 
+6.1999999999999940e+00 -5.2845473901334850e-01 +1.1226552828548921e+00 +9.8012658203000864e+00 +1.5816057385069280e+01 +3.1323839033055356e+03 +1.5782780878260637e+04 -4.2177070567150200e+06 
+6.2999999999999936e+00 -5.2845541997366252e-01 +1.1226313703818906e+00 +9.8088885852457022e+00 +1.5860057650764141e+01 +3.0604846500913432e+03 +1.6082748282131301e+04 -4.1696508946494698e+06 
+6.3999999999999932e+00 -5.2845612161486111e-01 +1.1226035857765868e+00 +9.8178911539578575e+00 +1.6013497383527568e+01 +2.9693142996298589e+03 +1.5486878194539897e+04 -4.0309368588761748e+06 
+6.4999999999999929e+00 -5.2845683738082916e-01 +1.1225744380418479e+00 +9.8278797661256565e+00 +1.6243504179815311e+01 +2.8631536410083027e+03 +1.4178744813838153e+04 -3.8112950614195596e+06 
+6.5999999999999925e+00 -5.2845756071631034e-01 +1.1225464363626581e+00 +9.8384607537882616e+00 +1.6517200867398763e+01 +2.7462814302483021e+03 +1.2341945025112205e+04 -3.5204445636235708e+06 
+6.6999999999999922e+00 -5.2845828506701986e-01 +1.1225220901129525e+00 +9.8492405542627921e+00 +1.6801705350746708e+01 +2.6229741377738819e+03 +1.0160099048856220e+04 -3.1680921326685767e+06 
+6.7999999999999918e+00 -5.2845900387959532e-01 +1.1225039088665387e+00 +9.8598257043759574e+00 +1.7064130284506128e+01 +2.4975060406869466e+03 +7.8168522535882475e+03 -2.7639326101035131e+06 
+6.8999999999999915e+00 -5.2845971060168284e-01 +1.1224944024022760e+00 +9.8698228498272886e+00 +1.7271582962834788e+01 +2.3741490399841150e+03 +5.4958755659819699e+03 -2.3176480073950663e+06 
+6.9999999999999911e+00 -5.2846039868199657e-01 +1.1224960807207134e+00 +9.8788387535958275e+00 +1.7391164921699588e+01 +2.2571724696853703e+03 +3.3808644938046987e+03 -1.8389067473175854e+06 
+7.0999999999999908e+00 -5.2846106340039700e-01 +1.1225107089453317e+00 +9.8866087251138755e+00 +1.7397871898626434e+01 +2.1492986797477283e+03 +1.6182923340233681e+03 -1.3338870334109871e+06 
+7.1999999999999904e+00 -5.2846170668513170e-01 +1.1225371373830266e+00 +9.8933310362226052e+00 +1.7293361659307621e+01 +2.0485620244959991e+03 +2.5127317799821319e+02 -8.0251277766960778e+05 
+7.2999999999999901e+00 -5.2846233195762149e-01 +1.1225735090877011e+00 +9.8993066330300454e+00 +1.7084444172320399e+01 +1.9522196269503504e+03 -6.9011636049653873e+02 -2.4524665087655798e+05 
+7.3999999999999897e+00 -5.2846294263854621e-01 +1.1226179669915741e+00 +9.9048363862217066e+00 +1.6777931543925849e+01 +1.8575304011527785e+03 -1.1758010446334049e+03 +3.3743804628214735e+05 
+7.4999999999999893e+00 -5.2846354214789426e-01 +1.1226686538622592e+00 +9.9102211015706505e+00 +1.6380639860482653e+01 +1.7617547536053712e+03 -1.1757184151882200e+03 +9.4505904474841338e+05 
+7.5999999999999890e+00 -5.2846413390490088e-01 +1.1227237123002927e+00 +9.9157615133315602e+00 +1.5899389244394957e+01 +1.6621547168377747e+03 -6.5981878149914883e+02 +1.5771244079623851e+06 
+7.6999999999999886e+00 -5.2846472132808653e-01 +1.1227812847272884e+00 +9.9217582897781682e+00 +1.5341004155862564e+01 +1.5559938535564547e+03 +4.0193344346175735e+02 +2.2331329214755106e+06 
+7.7999999999999883e+00 -5.2846530783515777e-01 +1.1228395133851661e+00 +9.9285120217214082e+00 +1.4712313402944334e+01 +1.4405374819252002e+03 +2.0395600059821058e+03 +2.9125729615889867e+06 
+7.8999999999999879e+00 -5.2846589684303913e-01 +1.1228965403300888e+00 +9.9363232267819974e+00 +1.4020150274975222e+01 +1.3130526087382857e+03 +4.2830684579333374e+03 +3.6149227322480110e+06 
+7.9999999999999876e+00 -5.2846649176774640e-01 +1.1229505073968087e+00 +9.9454923315843047e+00 +1.3271353492239216e+01 +1.1708083019761052e+03 +7.1624499037680871e+03 +4.3396486013660450e+06 
+8.0999999999999872e+00 -5.2846709409914938e-01 +1.1229998593856101e+00 +9.9561398722220709e+00 +1.2473123323339061e+01 +1.0135232690787639e+03 +1.0698365518519144e+04 +5.0784596759158848e+06 
+8.1999999999999869e+00 -5.2846769843984509e-01 +1.1230442397846612e+00 +9.9677617173760158e+00 +1.1638855150736660e+01 +8.4830482175256293e+02 +1.4827755132591641e+04 +5.8046948393997001e+06 
+8.2999999999999865e+00 -5.2846829787244221e-01 +1.1230835776266315e+00 +9.9797211152331275e+00 +1.0785155948786576e+01 +6.8348756195923954e+02 +1.9452260612304959e+04 +6.4904495406001797e+06 
+8.3999999999999861e+00 -5.2846888547986237e-01 +1.1231178021654209e+00 +9.9913813661781088e+00 +9.9286282533038914e+00 +5.2740455831568693e+02 +2.4473540621323162e+04 +7.1078288012377908e+06 
+8.4999999999999858e+00 -5.2846945434523496e-01 +1.1231468429443932e+00 +1.0002105804871199e+01 +9.0858671729212617e+00 +3.8838783889256081e+02 +2.9793290528370206e+04 +7.6289443791721212e+06 
+8.5999999999999854e+00 -5.2846999755191792e-01 +1.1231706298065602e+00 +1.0011257802112288e+01 +8.2734601292431407e+00 +2.7476835061785607e+02 +3.5313243688395480e+04 +8.0259149993703626e+06 
+8.6999999999999851e+00 -5.2847050818349961e-01 +1.1231890929016581e+00 +1.0018200765762924e+01 +7.5079866779946567e+00 +1.9487592745472790e+02 +4.0935172280035091e+04 +8.2708665687289834e+06 
+8.7999999999999847e+00 -5.2847097932383058e-01 +1.1232021626954565e+00 +1.0022298144944374e+01 +6.8060182669909208e+00 +1.5703919710594010e+02 +4.6560888503085465e+04 +8.3359326811199123e+06 
+8.8999999999999844e+00 -5.2847140405699911e-01 +1.1232097699790127e+00 +1.0022913426441445e+01 +6.1841180006606091e+00 +1.6958564290191350e+02 +5.2092245724809356e+04 +8.1932543669203119e+06 
+8.9999999999999840e+00 -5.2847177546740098e-01 +1.1232118458997442e+00 +1.0019410148864331e+01 +5.6588402566110112e+00 +2.4084133533709766e+02 +5.7431137055435327e+04 +7.8149811584325526e+06 
+9.0999999999999837e+00 -5.2847208960060343e-01 +1.1232085568226173e+00 +1.0011413446278585e+01 +5.2421276821929021e+00 +3.7538357868848647e+02 +6.2485311148695168e+04 +7.1877522767187459e+06 
+9.1999999999999833e+00 -5.2847235373775414e-01 +1.1232009599515418e+00 +9.9994907227506129e+00 +4.9248313445481644e+00 +5.6492932178426952e+02 +6.7208809416530989e+04 +6.3468092172500286e+06 
+9.2999999999999829e+00 -5.2847257782499546e-01 +1.1231903315477396e+00 +9.9844202307029590e+00 +4.6916381115895058e+00 +7.9850534324396472e+02 +7.1573523848020617e+04 +5.3372085261069760e+06 
+9.3999999999999826e+00 -5.2847277180859176e-01 +1.1231779475830650e+00 +9.9669801948390706e+00 +4.5272418505085090e+00 +1.0651394671628016e+03 +7.5551303330041454e+04 +4.2040011899898686e+06 
+9.4999999999999822e+00 -5.2847294563495517e-01 +1.1231650837036704e+00 +9.9479488171210697e+00 +4.4163447546499590e+00 +1.3538604057453088e+03 +7.9113948802627172e+04 +2.9922332844683630e+06 
+9.5999999999999819e+00 -5.2847310925066271e-01 +1.1231530152205103e+00 +9.9281042787163134e+00 +4.3436575778848994e+00 +1.6536977299882833e+03 +8.2233211936549342e+04 +1.7469461054266200e+06 
+9.6999999999999815e+00 -5.2847327260245303e-01 +1.1231430171037233e+00 +9.9082247378382604e+00 +4.2938997690588199e+00 +1.9536819273279623e+03 +8.4880794373931378e+04 +5.1317586301212735e+05 
+9.7999999999999812e+00 -5.2847344563722931e-01 +1.1231363639638341e+00 +9.8890883294060981e+00 +4.2517999883087354e+00 +2.2428444173143325e+03 +8.7028344729938501e+04 -6.6404640250174643e+05 
+9.8999999999999808e+00 -5.2847363830205485e-01 +1.1231343300544510e+00 +9.8714731628265913e+00 +4.2020959898582193e+00 +2.5102176114746721e+03 +8.8647459320144262e+04 -1.7396951418092411e+06 
+9.9999999999999805e+00 -5.2847386054415146e-01 +1.1231381892506740e+00 +9.8561573189620475e+00 +4.1295343605403732e+00 +2.7448348953259438e+03 +8.9709687504114321e+04 -2.6687497727476419e+06 
+1.0099999999999980e+01 -5.2847411985757842e-01 +1.1231487181450146e+00 +9.8437365900458076e+00 +4.0246660010873212e+00 +2.9381575063078976e+03 +9.0192636193291124e+04 -3.4160287074891180e+06 
