# trajectory
# s[mm] rx[mm] ry[mm] rz[mm] px[rad] py[rad] pz[rad]
0.0000000000000000e+00 +6.4329999999999998e+00 +0.0000000000000000e+00 +0.0000000000000000e+00 +0.0000000000000000e+00 +0.0000000000000000e+00 +1.0000000000000000e+00
1.0000000000000001e-01 +6.4329996402335734e+00 +0.0000000000000000e+00 +9.9999999999137099e-02 -7.1953282098455757e-06 +0.0000000000000000e+00 +9.9999999997411360e-01
2.0000000000000001e-01 +6.4329985609344211e+00 +0.0000000000000000e+00 +1.9999999999309692e-01 -1.4390654510024557e-05 +0.0000000000000000e+00 +9.9999999989645449e-01
3.0000000000000004e-01 +6.4329967621027357e+00 +0.0000000000000000e+00 +2.9999999997670224e-01 -2.1585978879923822e-05 +0.0000000000000000e+00 +9.9999999976702270e-01
4.0000000000000002e-01 +6.4329942437387073e+00 +0.0000000000000000e+00 +3.9999999994477575e-01 -2.8781301397982663e-05 +0.0000000000000000e+00 +9.9999999958581831e-01
5.0000000000000000e-01 +6.4329910058425126e+00 +0.0000000000000000e+00 +4.9999999989214017e-01 -3.5976622241693788e-05 +0.0000000000000000e+00 +9.9999999935284134e-01
5.9999999999999998e-01 +6.4329870484143061e+00 +0.0000000000000000e+00 +5.9999999981361829e-01 -4.3171941687603597e-05 +0.0000000000000000e+00 +9.9999999906809178e-01
6.9999999999999996e-01 +6.4329823714542096e+00 +0.0000000000000000e+00 +6.9999999970403282e-01 -5.0367260111311749e-05 +0.0000000000000000e+00 +9.9999999873156964e-01
7.9999999999999993e-01 +6.4329769749623020e+00 +0.0000000000000000e+00 +7.9999999955820644e-01 -5.7562577987469980e-05 +0.0000000000000000e+00 +9.9999999834327491e-01
8.9999999999999991e-01 +6.4329708589386110e+00 +0.0000000000000000e+00 +8.9999999937096198e-01 -6.4757895889780252e-05 +0.0000000000000000e+00 +9.9999999790320759e-01
9.9999999999999989e-01 +6.4329640233831009e+00 +0.0000000000000000e+00 +9.9999999913712223e-01 -7.1953214490992154e-05 +0.0000000000000000e+00 +9.9999999741136758e-01
1.0999999999999999e+00 +6.4329564682956644e+00 +0.0000000000000000e+00 +1.0999999988515099e+00 -7.9148534553209350e-05 +0.0000000000000000e+00 +9.9999999686775487e-01
1.2000000000000000e+00 +6.4329481936761166e+00 +0.0000000000000000e+00 +1.1999999985089476e+00 -8.6343856821294020e-05 +0.0000000000000000e+00 +9.9999999627236935e-01
1.3000000000000000e+00 +6.4329391995242053e+00 +0.0000000000000000e+00 +1.2999999981042580e+00 -9.3539181916274579e-05 +0.0000000000000000e+00 +9.9999999562521091e-01
1.4000000000000001e+00 +6.4329294858396224e+00 +0.0000000000000000e+00 +1.3999999976322639e+00 -1.0073451032565810e-04 +0.0000000000000000e+00 +9.9999999492627945e-01
1.5000000000000002e+00 +6.4329190526220179e+00 +0.0000000000000000e+00 +1.4999999970877880e+00 -1.0792984240343388e-04 +0.0000000000000000e+00 +9.9999999417557484e-01
1.6000000000000003e+00 +6.4329078998710125e+00 +0.0000000000000000e+00 +1.5999999964656531e+00 -1.1512517837007765e-04 +0.0000000000000000e+00 +9.9999999337309697e-01
1.7000000000000004e+00 +6.4328960275862119e+00 +0.0000000000000000e+00 +1.6999999957606817e+00 -1.2232051831255675e-04 +0.0000000000000000e+00 +9.9999999251884575e-01
1.8000000000000005e+00 +6.4328834357672191e+00 +0.0000000000000000e+00 +1.7999999949676966e+00 -1.2951586218433588e-04 +0.0000000000000000e+00 +9.9999999161282105e-01
1.9000000000000006e+00 +6.4328701244136495e+00 +0.0000000000000000e+00 +1.8999999940815202e+00 -1.3671120980538376e-04 +0.0000000000000000e+00 +9.9999999065502287e-01
2.0000000000000004e+00 +6.4328560935251433e+00 +0.0000000000000000e+00 +1.9999999930969754e+00 -1.4390656086218058e-04 +0.0000000000000000e+00 +9.9999998964545123e-01
2.1000000000000005e+00 +6.4328413431013773e+00 +0.0000000000000000e+00 +2.0999999920088848e+00 -1.5110191492210195e-04 +0.0000000000000000e+00 +9.9999998858410599e-01
2.2000000000000006e+00 +6.4328258731420727e+00 +0.0000000000000000e+00 +2.1999999908120706e+00 -1.5829727159156112e-04 +0.0000000000000000e+00 +9.9999998747098728e-01
2.3000000000000007e+00 +6.4328096836469797e+00 +0.0000000000000000e+00 +2.2999999895013561e+00 -1.6549263067414528e-04 +0.0000000000000000e+00 +9.9999998630609499e-01
2.4000000000000008e+00 +6.4327927746158577e+00 +0.0000000000000000e+00 +2.3999999880715639e+00 -1.7268799218498945e-04 +0.0000000000000000e+00 +9.9999998508942900e-01
2.5000000000000009e+00 +6.4327751460484546e+00 +0.0000000000000000e+00 +2.4999999865175164e+00 -1.7988335635077366e-04 +0.0000000000000000e+00 +9.9999998382098931e-01
2.6000000000000010e+00 +6.4327567979444851e+00 +0.0000000000000000e+00 +2.5999999848340360e+00 -1.8707872360971964e-04 +0.0000000000000000e+00 +9.9999998250077582e-01
2.7000000000000011e+00 +6.4327377303036082e+00 +0.0000000000000000e+00 +2.6999999830159456e+00 -1.9427409461158685e-04 +0.0000000000000000e+00 +9.9999998112878830e-01
2.8000000000000012e+00 +6.4327179431254091e+00 +0.0000000000000000e+00 +2.7999999810580678e+00 -2.0146947021766804e-04 +0.0000000000000000e+00 +9.9999997970502652e-01
2.9000000000000012e+00 +6.4326974364093754e+00 +0.0000000000000000e+00 +2.8999999789552251e+00 -2.0866485150078417e-04 +0.0000000000000000e+00 +9.9999997822949005e-01
3.0000000000000013e+00 +6.4326762101548773e+00 +0.0000000000000000e+00 +2.9999999767022398e+00 -2.1586023974527884e-04 +0.0000000000000000e+00 +9.9999997670217855e-01
3.1000000000000014e+00 +6.4326542643611457e+00 +0.0000000000000000e+00 +3.0999999742939348e+00 -2.2305563642294841e-04 +0.0000000000000000e+00 +9.9999997512309158e-01
3.2000000000000015e+00 +6.4326315990272649e+00 +0.0000000000000000e+00 +3.1999999717251324e+00 -2.3025104292833431e-04 +0.0000000000000000e+00 +9.9999997349222858e-01
3.3000000000000016e+00 +6.4326082141521965e+00 +0.0000000000000000e+00 +3.2999999689906550e+00 -2.3744646031401368e-04 +0.0000000000000000e+00 +9.9999997180958911e-01
3.4000000000000017e+00 +6.4325841097348153e+00 +0.0000000000000000e+00 +3.3999999660853244e+00 -2.4464188926652563e-04 +0.0000000000000000e+00 +9.9999997007517283e-01
3.5000000000000018e+00 +6.4325592857739462e+00 +0.0000000000000000e+00 +3.4999999630039635e+00 -2.5183733010636079e-04 +0.0000000000000000e+00 +9.9999996828897930e-01
3.6000000000000019e+00 +6.4325337422683990e+00 +0.0000000000000000e+00 +3.5999999597413943e+00 -2.5903278278794988e-04 +0.0000000000000000e+00 +9.9999996645100842e-01
3.7000000000000020e+00 +6.4325074792170076e+00 +0.0000000000000000e+00 +3.6999999562924391e+00 -2.6622824689965174e-04 +0.0000000000000000e+00 +9.9999996456125995e-01
3.8000000000000020e+00 +6.4324804966186644e+00 +0.0000000000000000e+00 +3.7999999526519201e+00 -2.7342372166374055e-04 +0.0000000000000000e+00 +9.9999996261973378e-01
3.9000000000000021e+00 +6.4324527944723577e+00 +0.0000000000000000e+00 +3.8999999488146599e+00 -2.8061920593639236e-04 +0.0000000000000000e+00 +9.9999996062643015e-01
4.0000000000000018e+00 +6.4324243727772101e+00 +0.0000000000000000e+00 +3.9999999447754804e+00 -2.8781469820767094e-04 +0.0000000000000000e+00 +9.9999995858134916e-01
4.1000000000000014e+00 +6.4323952315325110e+00 +0.0000000000000000e+00 +4.0999999405292042e+00 -2.9501019663029837e-04 +0.0000000000000000e+00 +9.9999995648449125e-01
4.2000000000000011e+00 +6.4323653707377417e+00 +0.0000000000000000e+00 +4.1999999360706530e+00 -3.0220569933628398e-04 +0.0000000000000000e+00 +9.9999995433585687e-01
4.3000000000000007e+00 +6.4323347903925541e+00 +0.0000000000000000e+00 +4.2999999313946500e+00 -3.0940120475357157e-04 +0.0000000000000000e+00 +9.9999995213544635e-01
4.4000000000000004e+00 +6.4323034904967429e+00 +0.0000000000000000e+00 +4.3999999264960170e+00 -3.1659671163484235e-04 +0.0000000000000000e+00 +9.9999994988326013e-01
4.5000000000000000e+00 +6.4322714710502096e+00 +0.0000000000000000e+00 +4.4999999213695761e+00 -3.2379221905753399e-04 +0.0000000000000000e+00 +9.9999994757929833e-01
4.5999999999999996e+00 +6.4322387320529337e+00 +0.0000000000000000e+00 +4.5999999160101508e+00 -3.3098772642386120e-04 +0.0000000000000000e+00 +9.9999994522356128e-01
4.6999999999999993e+00 +6.4322052735049366e+00 +0.0000000000000000e+00 +4.6999999104125632e+00 -3.3818323346083745e-04 +0.0000000000000000e+00 +9.9999994281604898e-01
4.7999999999999989e+00 +6.4321710954062512e+00 +0.0000000000000000e+00 +4.7999999045716351e+00 -3.4537874022029795e-04 +0.0000000000000000e+00 +9.9999994035676143e-01
4.8999999999999986e+00 +6.4321361977568898e+00 +0.0000000000000000e+00 +4.8999998984821893e+00 -3.5257424707892387e-04 +0.0000000000000000e+00 +9.9999993784569852e-01
4.9999999999999982e+00 +6.4321005805568099e+00 +0.0000000000000000e+00 +4.9999998921390487e+00 -3.5976975473826799e-04 +0.0000000000000000e+00 +9.9999993528286002e-01
5.0999999999999979e+00 +6.4320642438058826e+00 +0.0000000000000000e+00 +5.0999998855370352e+00 -3.6696526420671561e-04 +0.0000000000000000e+00 +9.9999993266824549e-01
5.1999999999999975e+00 +6.4320271875038708e+00 +0.0000000000000000e+00 +5.1999998786709716e+00 -3.7416077660078174e-04 +0.0000000000000000e+00 +9.9999993000185450e-01
5.2999999999999972e+00 +6.4319894116504299e+00 +0.0000000000000000e+00 +5.2999998715356798e+00 -3.8135629294638510e-04 +0.0000000000000000e+00 +9.9999992728368658e-01
5.3999999999999968e+00 +6.4319509162451185e+00 +0.0000000000000000e+00 +5.3999998641259825e+00 -3.8855181416076837e-04 +0.0000000000000000e+00 +9.9999992451374131e-01
5.4999999999999964e+00 +6.4319117012874081e+00 +0.0000000000000000e+00 +5.4999998564367019e+00 -3.9574734105248308e-04 +0.0000000000000000e+00 +9.9999992169201823e-01
5.5999999999999961e+00 +6.4318717667766947e+00 +0.0000000000000000e+00 +5.5999998484626605e+00 -4.0294287432137359e-04 +0.0000000000000000e+00 +9.9999991881851702e-01
5.6999999999999957e+00 +6.4318311127123113e+00 +0.0000000000000000e+00 +5.6999998401986796e+00 -4.1013841455856038e-04 +0.0000000000000000e+00 +9.9999991589323722e-01
5.7999999999999954e+00 +6.4317897390935350e+00 +0.0000000000000000e+00 +5.7999998316395818e+00 -4.1733396224642228e-04 +0.0000000000000000e+00 +9.9999991291617851e-01
5.8999999999999950e+00 +6.4317476459196010e+00 +0.0000000000000000e+00 +5.8999998227801891e+00 -4.2452951775857835e-04 +0.0000000000000000e+00 +9.9999990988734055e-01
5.9999999999999947e+00 +6.4317048331897135e+00 +0.0000000000000000e+00 +5.9999998136153234e+00 -4.3172508135986849e-04 +0.0000000000000000e+00 +9.9999990680672302e-01
6.0999999999999943e+00 +6.4316613009030545e+00 +0.0000000000000000e+00 +6.0999998041398076e+00 -4.3892065321185058e-04 +0.0000000000000000e+00 +9.9999990367432579e-01
6.1999999999999940e+00 +6.4316170490587927e+00 +0.0000000000000000e+00 +6.1999997943484626e+00 -4.4611623343347295e-04 +0.0000000000000000e+00 +9.9999990049014853e-01
6.2999999999999936e+00 +6.4315720776560843e+00 +0.0000000000000000e+00 +6.2999997842361113e+00 -4.5331182216176258e-04 +0.0000000000000000e+00 +9.9999989725419103e-01
6.3999999999999932e+00 +6.4315263866940713e+00 +0.0000000000000000e+00 +6.3999997737975747e+00 -4.6050741955735053e-04 +0.0000000000000000e+00 +9.9999989396645306e-01
6.4999999999999929e+00 +6.4314799761718779e+00 +0.0000000000000000e+00 +6.4999997630276756e+00 -4.6770302580448060e-04 +0.0000000000000000e+00 +9.9999989062693428e-01
6.5999999999999925e+00 +6.4314328460886090e+00 +0.0000000000000000e+00 +6.5999997519212359e+00 -4.7489864111101868e-04 +0.0000000000000000e+00 +9.9999988723563438e-01
6.6999999999999922e+00 +6.4313849964433460e+00 +0.0000000000000000e+00 +6.6999997404730767e+00 -4.8209426570846231e-04 +0.0000000000000000e+00 +9.9999988379255311e-01
6.7999999999999918e+00 +6.4313364272351485e+00 +0.0000000000000000e+00 +6.7999997286780207e+00 -4.8928989985195083e-04 +0.0000000000000000e+00 +9.9999988029769016e-01
6.8999999999999915e+00 +6.4312871384630483e+00 +0.0000000000000000e+00 +6.8999997165308891e+00 -4.9648554382027556e-04 +0.0000000000000000e+00 +9.9999987675104518e-01
6.9999999999999911e+00 +6.4312371301260471e+00 +0.0000000000000000e+00 +6.9999997040265036e+00 -5.0368119791589078e-04 +0.0000000000000000e+00 +9.9999987315261774e-01
7.0999999999999908e+00 +6.4311864022231164e+00 +0.0000000000000000e+00 +7.0999996911596863e+00 -5.1087686245892996e-04 +0.0000000000000000e+00 +9.9999986950240749e-01
7.1999999999999904e+00 +6.4311349547531975e+00 +0.0000000000000000e+00 +7.1999996779252591e+00 -5.1807253772126916e-04 +0.0000000000000000e+00 +9.9999986580041411e-01
7.2999999999999901e+00 +6.4310827877152095e+00 +0.0000000000000000e+00 +7.2999996643180429e+00 -5.2526822386057934e-04 +0.0000000000000000e+00 +9.9999986204663727e-01
7.3999999999999897e+00 +6.4310299011080616e+00 +0.0000000000000000e+00 +7.3999996503328598e+00 -5.3246392091432424e-04 +0.0000000000000000e+00 +9.9999985824107673e-01
7.4999999999999893e+00 +6.4309762949306659e+00 +0.0000000000000000e+00 +7.4999996359645316e+00 -5.3965962879975169e-04 +0.0000000000000000e+00 +9.9999985438373229e-01
7.5999999999999890e+00 +6.4309219691819477e+00 +0.0000000000000000e+00 +7.5999996212078802e+00 -5.4685534731388572e-04 +0.0000000000000000e+00 +9.9999985047460371e-01
7.6999999999999886e+00 +6.4308669238608598e+00 +0.0000000000000000e+00 +7.6999996060577267e+00 -5.5405107613351785e-04 +0.0000000000000000e+00 +9.9999984651369112e-01
7.7999999999999883e+00 +6.4308111589663923e+00 +0.0000000000000000e+00 +7.7999995905088921e+00 -5.6124681481519779e-04 +0.0000000000000000e+00 +9.9999984250099438e-01
7.8999999999999879e+00 +6.4307546744975870e+00 +0.0000000000000000e+00 +7.8999995745561993e+00 -5.6844256279522487e-04 +0.0000000000000000e+00 +9.9999983843651374e-01
7.9999999999999876e+00 +6.4306974704535467e+00 +0.0000000000000000e+00 +7.9999995581944692e+00 -5.7563831938963806e-04 +0.0000000000000000e+00 +9.9999983432024930e-01
8.0999999999999872e+00 +6.4306395468334490e+00 +0.0000000000000000e+00 +8.0999995414185229e+00 -5.8283408380125647e-04 +0.0000000000000000e+00 +9.9999983015220140e-01
8.1999999999999869e+00 +6.4305809036365540e+00 +0.0000000000000000e+00 +8.1999995242231822e+00 -5.9002985519722309e-04 +0.0000000000000000e+00 +9.9999982593237025e-01
8.2999999999999865e+00 +6.4305215408622036e+00 +0.0000000000000000e+00 +8.2999995066032692e+00 -5.9722563278656647e-04 +0.0000000000000000e+00 +9.9999982166075629e-01
8.3999999999999861e+00 +6.4304614585098152e+00 +0.0000000000000000e+00 +8.3999994885536058e+00 -6.0442141582727035e-04 +0.0000000000000000e+00 +9.9999981733735976e-01
8.4999999999999858e+00 +6.4304006565788798e+00 +0.0000000000000000e+00 +8.4999994700690138e+00 -6.1161720362629449e-04 +0.0000000000000000e+00 +9.9999981296218099e-01
8.5999999999999854e+00 +6.4303391350689534e+00 +0.0000000000000000e+00 +8.5999994511443152e+00 -6.1881299553959612e-04 +0.0000000000000000e+00 +9.9999980853522030e-01
8.6999999999999851e+00 +6.4302768939796549e+00 +0.0000000000000000e+00 +8.6999994317743319e+00 -6.2600879097215209e-04 +0.0000000000000000e+00 +9.9999980405647793e-01
8.7999999999999847e+00 +6.4302139333106600e+00 +0.0000000000000000e+00 +8.7999994119538858e+00 -6.3320458937798170e-04 +0.0000000000000000e+00 +9.9999979952595419e-01
8.8999999999999844e+00 +6.4301502530616972e+00 +0.0000000000000000e+00 +8.8999993916777971e+00 -6.4040039026016984e-04 +0.0000000000000000e+00 +9.9999979494364932e-01
8.9999999999999840e+00 +6.4300858532325407e+00 +0.0000000000000000e+00 +8.9999993709408894e+00 -6.4759619317089113e-04 +0.0000000000000000e+00 +9.9999979030956354e-01
9.0999999999999837e+00 +6.4300207338230084e+00 +0.0000000000000000e+00 +9.0999993497379847e+00 -6.5479199771398950e-04 +0.0000000000000000e+00 +9.9999978562369707e-01
9.1999999999999833e+00 +6.4299548948329539e+00 +0.0000000000000000e+00 +9.1999993280639032e+00 -6.6198780357310427e-04 +0.0000000000000000e+00 +9.9999978088605013e-01
9.2999999999999829e+00 +6.4298883362622572e+00 +0.0000000000000000e+00 +9.2999993059134685e+00 -6.6918361053976388e-04 +0.0000000000000000e+00 +9.9999977609662283e-01
9.3999999999999826e+00 +6.4298210581108126e+00 +0.0000000000000000e+00 +9.3999992832815025e+00 -6.7637941851590765e-04 +0.0000000000000000e+00 +9.9999977125541517e-01
9.4999999999999822e+00 +6.4297530603785198e+00 +0.0000000000000000e+00 +9.4999992601628254e+00 -6.8357522751385093e-04 +0.0000000000000000e+00 +9.9999976636242704e-01
9.5999999999999819e+00 +6.4296843430652713e+00 +0.0000000000000000e+00 +9.5999992365522608e+00 -6.9077103765624863e-04 +0.0000000000000000e+00 +9.9999976141765845e-01
9.6999999999999815e+00 +6.4296149061709427e+00 +0.0000000000000000e+00 +9.6999992124446308e+00 -6.9796684917605798e-04 +0.0000000000000000e+00 +9.9999975642110916e-01
9.7999999999999812e+00 +6.4295447496953795e+00 +0.0000000000000000e+00 +9.7999991878347572e+00 -7.0516266241650040e-04 +0.0000000000000000e+00 +9.9999975137277897e-01
9.8999999999999808e+00 +6.4294738736383872e+00 +0.0000000000000000e+00 +9.8999991627174602e+00 -7.1235847783102232e-04 +0.0000000000000000e+00 +9.9999974627266741e-01
9.9999999999999805e+00 +6.4294022779997215e+00 +0.0000000000000000e+00 +9.9999991370875634e+00 -7.1955429598325490e-04 +0.0000000000000000e+00 +9.9999974112077417e-01
1.0099999999999980e+01 +6.4293299627790770e+00 +0.0000000000000000e+00 +1.0099999110939889e+01 -7.2675011754210633e-04 +0.0000000000000000e+00 +9.9999973591709856e-01
1.0199999999999980e+01 +6.4292569279760761e+00 +0.0000000000000000e+00 +1.0199999084269256e+01 -7.3394594322819841e-04 +0.0000000000000000e+00 +9.9999973066164005e-01
1.0299999999999979e+01 +6.4291831735902703e+00 +0.0000000000000000e+00 +1.0299999057070490e+01 -7.4114177376034915e-04 +0.0000000000000000e+00 +9.9999972535439796e-01
1.0399999999999979e+01 +6.4291086996211391e+00 +0.0000000000000000e+00 +1.0399999029338410e+01 -7.4833760985074983e-04 +0.0000000000000000e+00 +9.9999971999537174e-01
1.0499999999999979e+01 +6.4290335060680910e+00 +0.0000000000000000e+00 +1.0499999001067838e+01 -7.5553345220501081e-04 +0.0000000000000000e+00 +9.9999971458456072e-01
1.0599999999999978e+01 +6.4289575929304652e+00 +0.0000000000000000e+00 +1.0599998972253596e+01 -7.6272930152220919e-04 +0.0000000000000000e+00 +9.9999970912196412e-01
1.0699999999999978e+01 +6.4288809602075307e+00 +0.0000000000000000e+00 +1.0699998942890504e+01 -7.6992515849493698e-04 +0.0000000000000000e+00 +9.9999970360758139e-01
1.0799999999999978e+01 +6.4288036078984883e+00 +0.0000000000000000e+00 +1.0799998912973386e+01 -7.7712102380935095e-04 +0.0000000000000000e+00 +9.9999969804141176e-01
1.0899999999999977e+01 +6.4287255360024682e+00 +0.0000000000000000e+00 +1.0899998882497060e+01 -7.8431689814522330e-04 +0.0000000000000000e+00 +9.9999969242345454e-01
1.0999999999999977e+01 +6.4286467445185353e+00 +0.0000000000000000e+00 +1.0999998851456350e+01 -7.9151278217599375e-04 +0.0000000000000000e+00 +9.9999968675370898e-01
1.1099999999999977e+01 +6.4285672334456878e+00 +0.0000000000000000e+00 +1.1099998819846077e+01 -7.9870867655952907e-04 +0.0000000000000000e+00 +9.9999968103217429e-01
1.1199999999999976e+01 +6.4284870027828607e+00 +0.0000000000000000e+00 +1.1199998787661059e+01 -8.0590458183593314e-04 +0.0000000000000000e+00 +9.9999967525884992e-01
1.1299999999999976e+01 +6.4284060525289464e+00 +0.0000000000000000e+00 +1.1299998754896119e+01 -8.1310049832529865e-04 +0.0000000000000000e+00 +9.9999966943373531e-01
1.1399999999999975e+01 +6.4283243826828178e+00 +0.0000000000000000e+00 +1.1399998721546080e+01 -8.2029642611836486e-04 +0.0000000000000000e+00 +9.9999966355683023e-01
1.1499999999999975e+01 +6.4282419932433497e+00 +0.0000000000000000e+00 +1.1499998687605760e+01 -8.2749236507646774e-04 +0.0000000000000000e+00 +9.9999965762813448e-01
1.1599999999999975e+01 +6.4281588842094424e+00 +0.0000000000000000e+00 +1.1599998653069981e+01 -8.3468831483148856e-04 +0.0000000000000000e+00 +9.9999965164764804e-01
1.1699999999999974e+01 +6.4280750555800434e+00 +0.0000000000000000e+00 +1.1699998617933565e+01 -8.4188427478580109e-04 +0.0000000000000000e+00 +9.9999964561537136e-01
1.1799999999999974e+01 +6.4279905073541723e+00 +0.0000000000000000e+00 +1.1799998582191330e+01 -8.4908024411221807e-04 +0.0000000000000000e+00 +9.9999963953130477e-01
