# multipoles
# s[mm] polynom_b[n=0][T/m^n] polynom_b[n=1][T/m^n] polynom_b[n=2][T/m^n] polynom_b[n=3][T/m^n] polynom_b[n=4][T/m^n] polynom_b[n=5][T/m^n] polynom_b[n=6][T/m^n] 
+0.0000000000000000e+00 -7.1794745548534100e-01 +1.5247363675341792e+00 +1.2954411805210906e+01 +7.1815023198040819e+01 +1.2427075922609367e+04 -1.9031684731376619e+05 -5.0556241007575788e+07 
+1.0000000000000001e-01 -7.1794737479760440e-01 +1.5248031972899303e+00 +1.2987427444280382e+01 +7.0180303121603075e+01 +1.1779767065137003e+04 -1.8262918678822223e+05 -4.7529215232897602e+07 
+2.0000000000000001e-01 -7.1794736093933154e-01 +1.5248780648704447e+00 +1.3020297789453471e+01 +6.7873279215846082e+01 +1.1173996144750081e+04 -1.6967993787875870e+05 -4.4740971955782101e+07 
+3.0000000000000004e-01 -7.1794740041839455e-01 +1.5249582104816164e+00 +1.3051913980572110e+01 +6.5044648972942966e+01 +1.0622393728818030e+04 -1.5255161796675614e+05 -4.2236977723929025e+07 
+4.0000000000000002e-01 -7.1794747974279016e-01 +1.5250408743255994e+00 +1.3081167181387904e+01 +6.1845109751685847e+01 +1.0137589861659068e+04 -1.3232674356137324e+05 -4.0062696465912990e+07 
+5.0000000000000000e-01 -7.1794758542051784e-01 +1.5251232966222377e+00 +1.3106948561034619e+01 +5.8425358245252042e+01 +9.7322144338306043e+03 -1.1008782731586964e+05 -3.8263591243425064e+07 
+5.9999999999999998e-01 -7.1794770395959551e-01 +1.5252027176165770e+00 +1.3128149293410560e+01 +5.4936090373643431e+01 +9.4188972068224812e+03 -8.6917377554426566e+04 -3.6885124356504373e+07 
+6.9999999999999996e-01 -7.1794782186793427e-01 +1.5252763776075291e+00 +1.3143660538735869e+01 +5.1528000504529267e+01 +9.2102681774083285e+03 -6.3897893731569711e+04 -3.5972759062950872e+07 
+7.9999999999999993e-01 -7.1794792565332122e-01 +1.5253415169517945e+00 +1.3152373438511336e+01 +4.8351781472120351e+01 +9.1189576880417171e+03 -4.2111866763694212e+04 -3.5571960095505580e+07 
+8.9999999999999991e-01 -7.1794800182336849e-01 +1.5253953760931582e+00 +1.3153179106706862e+01 +4.5558123784183834e+01 +9.1575966068798261e+03 -2.2641774424027881e+04 -3.5728194501616567e+07 
+9.9999999999999989e-01 -7.1794803688543996e-01 +1.5254351955687222e+00 +1.3144968617102816e+01 +4.3297715548729762e+01 +9.3388165859672190e+03 -6.5700810483061014e+03 -3.6486932869068220e+07 
+1.0999999999999999e+00 -7.1794802107356903e-01 +1.5254588402928166e+00 +1.3127119953857768e+01 +4.1689934166988152e+01 +9.6681815354698028e+03 +5.2474735803256235e+03 -3.7864661810935959e+07 
+1.2000000000000000e+00 -7.1794795950126711e-01 +1.5254666389772265e+00 +1.3100949549652405e+01 +4.0728712483475604e+01 +1.0123332934555072e+04 +1.2863419624300550e+04 -3.9764278577386022e+07 
+1.3000000000000000e+00 -7.1794786099503738e-01 +1.5254595282451806e+00 +1.3068256153850372e+01 +4.0376554623444910e+01 +1.0675019171952777e+04 +1.6557822108416080e+04 -4.2060871490450822e+07 
+1.4000000000000001e+00 -7.1794773438136783e-01 +1.5254384446884088e+00 +1.3030838512037453e+01 +4.0595965593857038e+01 +1.1293988702043423e+04 +1.6610741569641457e+04 -4.4629529170548856e+07 
+1.5000000000000002e+00 -7.1794758848666862e-01 +1.5254043248545905e+00 +1.2990495358459320e+01 +4.1349451645515103e+01 +1.1950990190784007e+04 +1.3302232046886948e+04 -4.7345341262196586e+07 
+1.6000000000000003e+00 -7.1794743213730916e-01 +1.5253581052273679e+00 +1.2949025420731950e+01 +4.2599520817236588e+01 +1.2616772425671956e+04 +6.9123381027334899e+03 -5.0083398026916243e+07 
+1.7000000000000004e+00 -7.1794727415963999e-01 +1.5253007222079658e+00 +1.2908227422778364e+01 +4.4308683451144958e+01 +1.3262084263267872e+04 -2.2789080321924503e+03 -5.2718790129334375e+07 
+1.8000000000000005e+00 -7.1794712337998356e-01 +1.5252331121068712e+00 +1.2869900084451666e+01 +4.6439452405016524e+01 +1.3857674631003334e+04 -1.3991487517982981e+04 -5.5126608653393276e+07 
+1.9000000000000006e+00 -7.1794698862464512e-01 +1.5251562111210664e+00 +1.2835842121957024e+01 +4.8954343695299379e+01 +1.4374292528540685e+04 -2.7945398521647348e+04 -5.7181945159691647e+07 
+2.0000000000000004e+00 -7.1794687871993046e-01 +1.5250709553204869e+00 +1.2807852251358465e+01 +5.1815876864111715e+01 +1.4782686955983998e+04 -4.3860658251171437e+04 -5.8759891361147411e+07 
+2.1000000000000005e+00 -7.1794680109686360e-01 +1.5249787635538450e+00 +1.2787245049409334e+01 +5.4973712267934175e+01 +1.5062081993346401e+04 -6.1409000547135620e+04 -5.9773493263417132e+07 
+2.2000000000000006e+00 -7.1794675777349037e-01 +1.5248831349809999e+00 +1.2773413704446920e+01 +5.8323898796340387e+01 +1.5225346235321547e+04 -8.0058824384274747e+04 -6.0286081168310605e+07 
+2.3000000000000007e+00 -7.1794674945641168e-01 +1.5247881258085114e+00 +1.2765274648020949e+01 +6.1748550853889107e+01 +1.5293698752250533e+04 -9.9225271187642051e+04 -6.0398189302405268e+07 
+2.4000000000000008e+00 -7.1794677685257291e-01 +1.5246977922592195e+00 +1.2761744346963907e+01 +6.5129781956469245e+01 +1.5288358115468174e+04 -1.1832347544444326e+05 -6.0210350050460845e+07 
+2.5000000000000009e+00 -7.1794684066927761e-01 +1.5246161905880031e+00 +1.2761739304801059e+01 +6.8349704222645286e+01 +1.5230542383542626e+04 -1.3676856158001733e+05 -5.9823093932269379e+07 
+2.6000000000000010e+00 -7.1794694161422279e-01 +1.5245473770831333e+00 +1.2764176065831176e+01 +7.1290428295890436e+01 +1.5141469044722049e+04 -1.5397564339123556e+05 -5.9336949392290451e+07 
+2.7000000000000011e+00 -7.1794708039555011e-01 +1.5244954080706954e+00 +1.2767971220400860e+01 +7.3834063164812591e+01 +1.5042354935334255e+04 -1.6935982284934263e+05 -5.8852442466986880e+07 
+2.8000000000000012e+00 -7.1794725772187140e-01 +1.5244643399218067e+00 +1.2772041408397330e+01 +7.5862715920476049e+01 +1.4954416185340673e+04 -1.8233618858822048e+05 -5.8470096564149521e+07 
+2.9000000000000012e+00 -7.1794747430230244e-01 +1.5244582290571018e+00 +1.2775303321529254e+01 +7.7258491587552157e+01 +1.4898868202237927e+04 -1.9231981480908825e+05 -5.8290432468423665e+07 
+3.0000000000000013e+00 -7.1794773084653762e-01 +1.5244811319563643e+00 +1.2776673713939555e+01 +7.7903492780720612e+01 +1.4896925474610234e+04 -1.9872575882672591e+05 -5.8413967401354201e+07 
+3.1000000000000014e+00 -7.1794802759200071e-01 +1.5245352774541303e+00 +1.2775406454261757e+01 +7.7723477389404408e+01 +1.4962829418008352e+04 -2.0116930235330461e+05 -5.8906858070331566e+07 
+3.2000000000000015e+00 -7.1794836260546424e-01 +1.5246153338798987e+00 +1.2772112217053817e+01 +7.6824460809479959e+01 +1.5082584744688218e+04 -2.0009879597396360e+05 -5.9696506223987266e+07 
+3.3000000000000016e+00 -7.1794873334115150e-01 +1.5247140158843056e+00 +1.2767743461081739e+01 +7.5358954697818874e+01 +1.5235039899270601e+04 -1.9617887037771719e+05 -6.0675235988770790e+07 
+3.4000000000000017e+00 -7.1794913725267706e-01 +1.5248240380384537e+00 +1.2763252605488084e+01 +7.3479474336737937e+01 +1.5399043705728760e+04 -1.9007418363112261e+05 -6.1735372340420805e+07 
+3.5000000000000018e+00 -7.1794957179296792e-01 +1.5249381148384960e+00 +1.2759592023854857e+01 +7.1338538628141407e+01 +1.5553445439569785e+04 -1.8244942185568987e+05 -6.2769241326073833e+07 
+3.6000000000000019e+00 -7.1795003441420824e-01 +1.5250489606929483e+00 +1.2757714039401629e+01 +6.9088670572170315e+01 +1.5677094891780023e+04 -1.7396930255222786e+05 -6.3669170296719857e+07 
+3.7000000000000020e+00 -7.1795052256776470e-01 +1.5251492899273376e+00 +1.2758570918754605e+01 +6.6882397248967493e+01 +1.5748842451156714e+04 -1.6529857506011773e+05 -6.4327488198152073e+07 
+3.8000000000000020e+00 -7.1795103370415836e-01 +1.5252318167654371e+00 +1.2763114871874320e+01 +6.4872250480068189e+01 +1.5747539070807443e+04 -1.5710202497228442e+05 -6.4636525321137942e+07 
+3.9000000000000021e+00 -7.1795156527299642e-01 +1.5252892553359767e+00 +1.2772298046216800e+01 +6.3210766735197168e+01 +1.5652036345252045e+04 -1.5004447410186499e+05 -6.4488613572834678e+07 
+4.0000000000000018e+00 -7.1795211472289655e-01 +1.5253143196581835e+00 +1.2787072519661852e+01 +6.2050487786567345e+01 +1.5441186627536259e+04 -1.4479078536628038e+05 -6.3776087016652286e+07 
+4.1000000000000014e+00 -7.1795267975830213e-01 +1.5253022391201194e+00 +1.2808022748616182e+01 +6.1498680348883653e+01 +1.5101761406047850e+04 -1.4181744984165087e+05 -6.2430512574596345e+07 
+4.2000000000000011e+00 -7.1795325935641907e-01 +1.5252586770303049e+00 +1.2834209246703866e+01 +6.1472399227806648e+01 +1.4653105212604885e+04 -1.4079736241794311e+05 -6.0543621678666182e+07 
+4.3000000000000007e+00 -7.1795385287233870e-01 +1.5251920008321618e+00 +1.2864296990152980e+01 +6.1838865851911905e+01 +1.4122956947347770e+04 -1.4119022205215337e+05 -5.8248137647091635e+07 
+4.4000000000000004e+00 -7.1795445966216276e-01 +1.5251105781253691e+00 +1.2896951013376196e+01 +6.2465295166848719e+01 +1.3539054843774946e+04 -1.4245568346589719e+05 -5.5676781625710316e+07 
+4.5000000000000000e+00 -7.1795507908302036e-01 +1.5250227766674125e+00 +1.2930836408750293e+01 +6.3218895397828447e+01 +1.2929136501566816e+04 -1.4405335508978838e+05 -5.2962272824314997e+07 
+4.5999999999999996e+00 -7.1795571049317963e-01 +1.5249369643897532e+00 +1.2964618335992665e+01 +6.3966867432707801e+01 +1.2320938735755075e+04 -1.4544279494017371e+05 -5.0237327857559949e+07 
+4.6999999999999993e+00 -7.1795635325209639e-01 +1.5248615094056985e+00 +1.2996962023871459e+01 +6.4576404469308912e+01 +1.1742197576650386e+04 -1.4608350812586496e+05 -4.7634660822169803e+07 
+4.7999999999999989e+00 -7.1795700672045226e-01 +1.5248047800183964e+00 +1.3026532770419797e+01 +6.4914691636641464e+01 +1.1220648296992083e+04 -1.4543494411497132e+05 -4.5286983498350851e+07 
+4.8999999999999986e+00 -7.1795767026029245e-01 +1.5247751447329161e+00 +1.3051995955990906e+01 +6.4848905519645726e+01 +1.0784025191571705e+04 -1.4295649352496309e+05 -4.3327004363373205e+07 
+4.9999999999999982e+00 -7.1795834323499252e-01 +1.5247809722670433e+00 +1.3072017035080510e+01 +6.4246213540931777e+01 +1.0460061737186259e+04 -1.3810748422086818e+05 -4.1887429392270707e+07 
+5.0999999999999979e+00 -7.1795902402086664e-01 +1.5248279424943143e+00 +1.3085555597771998e+01 +6.3016602767738796e+01 +1.0269786712755289e+04 -1.3052162356574814e+05 -4.1068525949826457e+07 
+5.1999999999999975e+00 -7.1795970697091438e-01 +1.5249105559326801e+00 +1.3092856038106326e+01 +6.1251202256119207e+01 +1.0205709653074369e+04 -1.2057535117934158e+05 -4.0834025037113301e+07 
+5.2999999999999972e+00 -7.1796038541816509e-01 +1.5250204071796085e+00 +1.3094512813476067e+01 +5.9088896650756794e+01 +1.0252745974347290e+04 -1.0884187923443757e+05 -4.1111644864460528e+07 
+5.3999999999999968e+00 -7.1796105269458677e-01 +1.5251490907734422e+00 +1.3091120336867771e+01 +5.6668574474348908e+01 +1.0395811242264412e+04 -9.5894446504620806e+04 -4.1829102523583457e+07 
+5.4999999999999964e+00 -7.1796170213090260e-01 +1.5252882012039921e+00 +1.3083272956015637e+01 +5.4129128161315570e+01 +1.0619821525703497e+04 -8.2306319470986302e+04 -4.2914115530564457e+07 
+5.5999999999999961e+00 -7.1796232705661156e-01 +1.5254293329098316e+00 +1.3071564960541020e+01 +5.1609454273252140e+01 +1.0909693221462188e+04 -6.8650793869256129e+04 -4.4294400884630747e+07 
+5.6999999999999957e+00 -7.1796292079986501e-01 +1.5255640802735717e+00 +1.3056590570544740e+01 +4.9248453743924863e+01 +1.1250343242434235e+04 -5.5501196308274521e+04 -4.5897675891502470e+07 
+5.7999999999999954e+00 -7.1796347668747074e-01 +1.5256840376222034e+00 +1.3038943942204059e+01 +4.7185032014845333e+01 +1.1626688869571182e+04 -4.3430885379070787e+04 -4.7651657345200494e+07 
+5.8999999999999950e+00 -7.1796398804479589e-01 +1.5257807992149799e+00 +1.3019219159901505e+01 +4.5558099508678765e+01 +1.2023647869134944e+04 -3.3013254647063048e+04 -4.9484062003667437e+07 
+5.9999999999999947e+00 -7.1796444819570970e-01 +1.5258459592561044e+00 +1.2998010234818368e+01 +4.4506571609581968e+01 +1.2426138504321791e+04 -2.4821733093533021e+04 -5.1322606600489795e+07 
+6.0999999999999943e+00 -7.1796485361717166e-01 +1.5258732529700401e+00 +1.2975931130994301e+01 +4.4133055567075445e+01 +1.2820190179053603e+04 -1.9294899130996964e+04 -5.3101625468784571e+07 
+6.1999999999999940e+00 -7.1796521319533313e-01 +1.5258652503269097e+00 +1.2953533582224940e+01 +4.4388221985432480e+01 +1.3198800565945374e+04 -1.6308063492618343e+04 -5.4792040053267315e+07 
+6.2999999999999936e+00 -7.1796553886460401e-01 +1.5258268055276951e+00 +1.2931316927776590e+01 +4.5183017959642534e+01 +1.3557370330537264e+04 -1.5590136308603871e+04 -5.6376562180943757e+07 
+6.3999999999999932e+00 -7.1796584255975415e-01 +1.5257627726521961e+00 +1.2909780480205423e+01 +4.6428392417343517e+01 +1.3891301530486211e+04 -1.6870039057236387e+04 -5.7837912453581646e+07 
+6.4999999999999929e+00 -7.1796613621602989e-01 +1.5256780056339427e+00 +1.2889423539440912e+01 +4.8035296420508523e+01 +1.4195997403571831e+04 -1.9876703189011150e+04 -5.9158819609428264e+07 
+6.5999999999999925e+00 -7.1796643176915231e-01 +1.5255773582490919e+00 +1.2870745389839033e+01 +4.9914683390134400e+01 +1.4466862462202023e+04 -2.4339071310690248e+04 -6.0322021077119783e+07 
+6.6999999999999922e+00 -7.1796674115531733e-01 +1.5254656841242211e+00 +1.2854245296869401e+01 +5.1977508771978314e+01 +1.4699302595999921e+04 -2.9986095073024619e+04 -6.1310263570601195e+07 
+6.7999999999999918e+00 -7.1796707631125722e-01 +1.5253478367114295e+00 +1.2840422512104748e+01 +5.4134730694268420e+01 +1.4888725012860470e+04 -3.6546738968020145e+04 -6.2106302904301286e+07 
+6.8999999999999915e+00 -7.1796744917425626e-01 +1.5252286692997385e+00 +1.2829776271279259e+01 +5.6297309514951934e+01 +1.5030538323235394e+04 -4.3749977482164693e+04 -6.2692904524176538e+07 
+6.9999999999999911e+00 -7.1796787168210019e-01 +1.5251130349920241e+00 +1.2822805783416451e+01 +5.8376208105234198e+01 +1.5120152763375632e+04 -5.1324794316827873e+04 -6.3052844448831707e+07 
+7.0999999999999908e+00 -7.1796835190360941e-01 +1.5250049746432690e+00 +1.2819791659278165e+01 +6.0298065455166977e+01 +1.5155560099016579e+04 -5.9035111684080111e+04 -6.3178734182098530e+07 
+7.1999999999999904e+00 -7.1796888270667059e-01 +1.5249051934080273e+00 +1.2820229195260099e+01 +6.2055949178440557e+01 +1.5143301225249688e+04 -6.6796135434866912e+04 -6.3096347534575254e+07 
+7.2999999999999901e+00 -7.1796945322435990e-01 +1.5248135358981536e+00 +1.2823439454835505e+01 +6.3660499632401113e+01 +1.5091607347930467e+04 -7.4562607632499785e+04 -6.2838226715438180e+07 
+7.3999999999999897e+00 -7.1797005259007329e-01 +1.5247298469780592e+00 +1.2828743552387918e+01 +6.5122350780753862e+01 +1.5008708322123039e+04 -8.2289226386460272e+04 -6.2436907062802531e+07 
+7.4999999999999893e+00 -7.1797066993744352e-01 +1.5246539717777292e+00 +1.2835462641584895e+01 +6.6452130235018146e+01 +1.4902832849438788e+04 -8.9930652537469170e+04 -6.1924917412524328e+07 
+7.5999999999999890e+00 -7.1797129440036078e-01 +1.5245857557145692e+00 +1.2842917918015463e+01 +6.7660458667509459e+01 +1.4782208415635547e+04 -9.7441506218159382e+04 -6.1334779771983333e+07 
+7.6999999999999886e+00 -7.1797191511299296e-01 +1.5245250444849976e+00 +1.2850430622368137e+01 +6.8757950111239694e+01 +1.4655061212289445e+04 -1.0477636862000445e+05 -6.0699008902652465e+07 
+7.7999999999999883e+00 -7.1797252120977251e-01 +1.5244716840896155e+00 +1.2857322039396767e+01 +6.9755211274983736e+01 +1.4529616139287753e+04 -1.1188977797918550e+05 -6.0050112288351543e+07 
+7.8999999999999879e+00 -7.1797310182545016e-01 +1.5244255208306141e+00 +1.2862913504693060e+01 +7.0662841672584008e+01 +1.4414096662059819e+04 -1.1873623033899120e+05 -5.9420589421453923e+07 
+7.9999999999999876e+00 -7.1797364609506642e-01 +1.5243864013363564e+00 +1.2866526402068951e+01 +7.1491433064860757e+01 +1.4316724854471448e+04 -1.2527017666591459e+05 -5.8842932009392761e+07 
+8.0999999999999872e+00 -7.1797414643938962e-01 +1.5243541432446517e+00 +1.2867661462178093e+01 +7.2248800334529889e+01 +1.4243877020814867e+04 -1.3143673987872995e+05 -5.8343542304231733e+07 
+8.1999999999999869e+00 -7.1797460857158835e-01 +1.5243285614830482e+00 +1.2866558987956406e+01 +7.2926030518025073e+01 +1.4194360315901835e+04 -1.3711790822409108e+05 -5.7923226473095804e+07 
+8.2999999999999865e+00 -7.1797504157802250e-01 +1.5243094977808997e+00 +1.2863651060132714e+01 +7.3508613139151180e+01 +1.4165029945730415e+04 -1.4217392729576668e+05 -5.7576004450746089e+07 
+8.3999999999999861e+00 -7.1797545454517220e-01 +1.5242967935799143e+00 +1.2859369797635052e+01 +7.3982044291585780e+01 +1.4152740272058998e+04 -1.4646508323017479e+05 -5.7295891802076079e+07 
+8.4999999999999858e+00 -7.1797585655973173e-01 +1.5242902900200899e+00 +1.2854147369236685e+01 +7.4331827079263874e+01 +1.4154344561129255e+04 -1.4985170078412627e+05 -5.7076898851920478e+07 
+8.5999999999999854e+00 -7.1797625670854237e-01 +1.5242898279358594e+00 +1.2848415987132217e+01 +7.4543471687779004e+01 +1.4166695089558876e+04 -1.5219414372255511e+05 -5.6913031153253287e+07 
+8.6999999999999851e+00 -7.1797666407867289e-01 +1.5242952478400305e+00 +1.2842607916802152e+01 +7.4602495794722586e+01 +1.4186642961615984e+04 -1.5335281714091677e+05 -5.6798288642277688e+07 
+8.7999999999999847e+00 -7.1797708775733005e-01 +1.5243063899188203e+00 +1.2837155466916981e+01 +7.4494424659044725e+01 +1.4211038291472838e+04 -1.5318816792139917e+05 -5.6726666489284366e+07 
+8.8999999999999844e+00 -7.1797753683195720e-01 +1.5243230940252852e+00 +1.2832491002439948e+01 +7.4204791262411661e+01 +1.4236729951883994e+04 -1.5156068550722813e+05 -5.6692153908252493e+07 
+8.9999999999999840e+00 -7.1797802039011638e-01 +1.5243451996418047e+00 +1.2829046929768383e+01 +7.3719137922191592e+01 +1.4260565908160776e+04 -1.4833091752140515e+05 -5.6688736368052885e+07 
+9.0999999999999837e+00 -7.1797854458602695e-01 +1.5243723942759346e+00 +1.2827119667778025e+01 +7.3031536752262937e+01 +1.4280866438379169e+04 -1.4343805589143146e+05 -5.6715880963177711e+07 
+9.1999999999999833e+00 -7.1797910335888115e-01 +1.5244036398376095e+00 +1.2826406265202248e+01 +7.2174340071711356e+01 +1.4302523898826284e+04 -1.3715384587656098e+05 -5.6795567961261325e+07 
+9.2999999999999829e+00 -7.1797968745835172e-01 +1.5244376860022466e+00 +1.2826438498392253e+01 +7.1190722260355273e+01 +1.4332266058128615e+04 -1.2984014338673915e+05 -5.6955657763044506e+07 
+9.3999999999999826e+00 -7.1798028763328336e-01 +1.5244732827071021e+00 +1.2826748020888376e+01 +7.0123850263439024e+01 +1.4376823256960315e+04 -1.2185875925806066e+05 -5.7224022620177411e+07 
+9.4999999999999822e+00 -7.1798089463172809e-01 +1.5245091801672763e+00 +1.2826866367926232e+01 +6.9016882351971688e+01 +1.4442928408317925e+04 -1.1357144771645810e+05 -5.7628547107780024e+07 
+9.5999999999999819e+00 -7.1798149920090393e-01 +1.5245441288892372e+00 +1.2826324950011585e+01 +6.7912967720162513e+01 +1.4537317132740187e+04 -1.0533990388895923e+05 -5.8197128780845039e+07 
+9.6999999999999815e+00 -7.1798209208720432e-01 +1.5245768796677310e+00 +1.2824655054517267e+01 +6.6855246570858554e+01 +1.4666727731176479e+04 -9.7525764175635617e+04 -5.8957678032274954e+07 
+9.7999999999999812e+00 -7.1798266403613198e-01 +1.5246061836061364e+00 +1.2821387835831917e+01 +6.5886849509553514e+01 +1.4837901388875349e+04 -9.0490602559389896e+04 -5.9938119087524407e+07 
+9.8999999999999808e+00 -7.1798320579233366e-01 +1.5246307921172522e+00 +1.2816054320239431e+01 +6.5050897499733864e+01 +1.5057582081508466e+04 -8.4595930169214247e+04 -6.1166389529314443e+07 
+9.9999999999999805e+00 -7.1798370809961265e-01 +1.5246494570152727e+00 +1.2808185415147221e+01 +6.4390497934194173e+01 +1.5332516227766635e+04 -8.0203162302552810e+04 -6.2670437452837378e+07 
+1.0099999999999980e+01 -7.1798416437923163e-01 +1.5246613312596557e+00 +1.2797529467159350e+01 +6.3938195234075273e+01 +1.5665284243984579e+04 -7.7581876106800279e+04 -6.4457914997438118e+07 
