# trajectory
# s[mm] rx[mm] ry[mm] rz[mm] px[rad] py[rad] pz[rad]
0.0000000000000000e+00 +6.9830769999999998e+00 +0.0000000000000000e+00 +0.0000000000000000e+00 +0.0000000000000000e+00 +0.0000000000000000e+00 +1.0000000000000000e+00
1.0000000000000001e-01 +6.9830766176400223e+00 +0.0000000000000000e+00 +9.9999999999025341e-02 -7.6471995276165442e-06 +0.0000000000000000e+00 +9.9999999997076017e-01
2.0000000000000001e-01 +6.9830754705601059e+00 +0.0000000000000000e+00 +1.9999999999220269e-01 -1.5294398718820834e-05 +0.0000000000000000e+00 +9.9999999988304067e-01
3.0000000000000004e-01 +6.9830735587602994e+00 +0.0000000000000000e+00 +2.9999999997368415e-01 -2.2941597280775155e-05 +0.0000000000000000e+00 +9.9999999973684151e-01
4.0000000000000002e-01 +6.9830708822406784e+00 +0.0000000000000000e+00 +3.9999999993762170e-01 -3.0588794968175645e-05 +0.0000000000000000e+00 +9.9999999953216279e-01
5.0000000000000000e-01 +6.9830674410013414e+00 +0.0000000000000000e+00 +4.9999999987816740e-01 -3.8235991583251255e-05 +0.0000000000000000e+00 +9.9999999926900440e-01
5.9999999999999998e-01 +6.9830632350424029e+00 +0.0000000000000000e+00 +5.9999999978947327e-01 -4.5883186975763906e-05 +0.0000000000000000e+00 +9.9999999894736646e-01
6.9999999999999996e-01 +6.9830582643639909e+00 +0.0000000000000000e+00 +6.9999999966569137e-01 -5.3530381043009914e-05 +0.0000000000000000e+00 +9.9999999856724908e-01
7.9999999999999993e-01 +6.9830525289662404e+00 +0.0000000000000000e+00 +7.9999999950097378e-01 -6.1177573729822630e-05 +0.0000000000000000e+00 +9.9999999812865215e-01
8.9999999999999991e-01 +6.9830460288492908e+00 +0.0000000000000000e+00 +8.9999999928947250e-01 -6.8824765028576340e-05 +0.0000000000000000e+00 +9.9999999763157577e-01
9.9999999999999989e-01 +6.9830387640132798e+00 +0.0000000000000000e+00 +9.9999999902533965e-01 -7.6471954979191395e-05 +0.0000000000000000e+00 +9.9999999707601994e-01
1.0999999999999999e+00 +6.9830307344583371e+00 +0.0000000000000000e+00 +1.0999999987027271e+00 -8.4119143667662279e-05 +0.0000000000000000e+00 +9.9999999646198467e-01
1.2000000000000000e+00 +6.9830219401845843e+00 +0.0000000000000000e+00 +1.1999999983157872e+00 -9.1766331209803170e-05 +0.0000000000000000e+00 +9.9999999578947008e-01
1.3000000000000000e+00 +6.9830123811921290e+00 +0.0000000000000000e+00 +1.2999999978586718e+00 -9.9413517734989285e-05 +0.0000000000000000e+00 +9.9999999505847614e-01
1.4000000000000001e+00 +6.9830020574810661e+00 +0.0000000000000000e+00 +1.3999999973255330e+00 -1.0706070338467804e-04 +0.0000000000000000e+00 +9.9999999426900277e-01
1.5000000000000002e+00 +6.9829909690514755e+00 +0.0000000000000000e+00 +1.4999999967105231e+00 -1.1470788831240746e-04 +0.0000000000000000e+00 +9.9999999342105006e-01
1.6000000000000003e+00 +6.9829791159034222e+00 +0.0000000000000000e+00 +1.5999999960077937e+00 -1.2235507268379400e-04 +0.0000000000000000e+00 +9.9999999251461802e-01
1.7000000000000004e+00 +6.9829664980369515e+00 +0.0000000000000000e+00 +1.6999999952114973e+00 -1.3000225667652947e-04 +0.0000000000000000e+00 +9.9999999154970654e-01
1.8000000000000005e+00 +6.9829531154520925e+00 +0.0000000000000000e+00 +1.7999999943157856e+00 -1.3764944048037738e-04 +0.0000000000000000e+00 +9.9999999052631572e-01
1.9000000000000006e+00 +6.9829389681488543e+00 +0.0000000000000000e+00 +1.8999999933148111e+00 -1.4529662429716843e-04 +0.0000000000000000e+00 +9.9999998944444546e-01
2.0000000000000004e+00 +6.9829240561272252e+00 +0.0000000000000000e+00 +1.9999999922027254e+00 -1.5294380834079534e-04 +0.0000000000000000e+00 +9.9999998830409575e-01
2.1000000000000005e+00 +6.9829083793871707e+00 +0.0000000000000000e+00 +2.0999999909736808e+00 -1.6059099283541469e-04 +0.0000000000000000e+00 +9.9999998710526650e-01
2.2000000000000006e+00 +6.9828919379286356e+00 +0.0000000000000000e+00 +2.1999999896218294e+00 -1.6823817799572707e-04 +0.0000000000000000e+00 +9.9999998584795768e-01
2.3000000000000007e+00 +6.9828747317515436e+00 +0.0000000000000000e+00 +2.2999999881413231e+00 -1.7588536400725975e-04 +0.0000000000000000e+00 +9.9999998453216932e-01
2.4000000000000008e+00 +6.9828567608558005e+00 +0.0000000000000000e+00 +2.3999999865263142e+00 -1.8353255102457268e-04 +0.0000000000000000e+00 +9.9999998315790128e-01
2.5000000000000009e+00 +6.9828380252413007e+00 +0.0000000000000000e+00 +2.4999999847709544e+00 -1.9117973917125668e-04 +0.0000000000000000e+00 +9.9999998172515359e-01
2.6000000000000010e+00 +6.9828185249079260e+00 +0.0000000000000000e+00 +2.5999999828693956e+00 -1.9882692853993167e-04 +0.0000000000000000e+00 +9.9999998023392611e-01
2.7000000000000011e+00 +6.9827982598555502e+00 +0.0000000000000000e+00 +2.6999999808157904e+00 -2.0647411919224462e-04 +0.0000000000000000e+00 +9.9999997868421886e-01
2.8000000000000012e+00 +6.9827772300840438e+00 +0.0000000000000000e+00 +2.7999999786042902e+00 -2.1412131115886769e-04 +0.0000000000000000e+00 +9.9999997707603183e-01
2.9000000000000012e+00 +6.9827554355932744e+00 +0.0000000000000000e+00 +2.8999999762290471e+00 -2.2176850443949620e-04 +0.0000000000000000e+00 +9.9999997540936492e-01
3.0000000000000013e+00 +6.9827328763831131e+00 +0.0000000000000000e+00 +2.9999999736842136e+00 -2.2941569900284645e-04 +0.0000000000000000e+00 +9.9999997368421822e-01
3.1000000000000014e+00 +6.9827095524534331e+00 +0.0000000000000000e+00 +3.0999999709639412e+00 -2.3706289478773500e-04 +0.0000000000000000e+00 +9.9999997190059164e-01
3.2000000000000015e+00 +6.9826854638041169e+00 +0.0000000000000000e+00 +3.1999999680623823e+00 -2.4471009171497338e-04 +0.0000000000000000e+00 +9.9999997005848518e-01
3.3000000000000016e+00 +6.9826606104350546e+00 +0.0000000000000000e+00 +3.2999999649736886e+00 -2.5235728969926863e-04 +0.0000000000000000e+00 +9.9999996815789882e-01
3.4000000000000017e+00 +6.9826349923461448e+00 +0.0000000000000000e+00 +3.3999999616920125e+00 -2.6000448865031367e-04 +0.0000000000000000e+00 +9.9999996619883258e-01
3.5000000000000018e+00 +6.9826086095372952e+00 +0.0000000000000000e+00 +3.4999999582115056e+00 -2.6765168847279721e-04 +0.0000000000000000e+00 +9.9999996418128645e-01
3.6000000000000019e+00 +6.9825814620084241e+00 +0.0000000000000000e+00 +3.5999999545263202e+00 -2.7529888906641429e-04 +0.0000000000000000e+00 +9.9999996210526043e-01
3.7000000000000020e+00 +6.9825535497594595e+00 +0.0000000000000000e+00 +3.6999999506306080e+00 -2.8294609032587781e-04 +0.0000000000000000e+00 +9.9999995997075453e-01
3.8000000000000020e+00 +6.9825248727903402e+00 +0.0000000000000000e+00 +3.7999999465185215e+00 -2.9059329214093076e-04 +0.0000000000000000e+00 +9.9999995777776873e-01
3.9000000000000021e+00 +6.9824954311010163e+00 +0.0000000000000000e+00 +3.8999999421842122e+00 -2.9824049439635926e-04 +0.0000000000000000e+00 +9.9999995552630305e-01
4.0000000000000018e+00 +6.9824652246914498e+00 +0.0000000000000000e+00 +3.9999999376218325e+00 -3.0588769697200633e-04 +0.0000000000000000e+00 +9.9999995321635760e-01
4.1000000000000014e+00 +6.9824342535616148e+00 +0.0000000000000000e+00 +4.0999999328255345e+00 -3.1353489974353854e-04 +0.0000000000000000e+00 +9.9999995084793236e-01
4.2000000000000011e+00 +6.9824025177114981e+00 +0.0000000000000000e+00 +4.1999999277894702e+00 -3.2118210259072990e-04 +0.0000000000000000e+00 +9.9999994842102735e-01
4.3000000000000007e+00 +6.9823700171410978e+00 +0.0000000000000000e+00 +4.2999999225077907e+00 -3.2882930540572934e-04 +0.0000000000000000e+00 +9.9999994593564268e-01
4.4000000000000004e+00 +6.9823367518504211e+00 +0.0000000000000000e+00 +4.3999999169746493e+00 -3.3647650809379766e-04 +0.0000000000000000e+00 +9.9999994339177833e-01
4.5000000000000000e+00 +6.9823027218394857e+00 +0.0000000000000000e+00 +4.4999999111841973e+00 -3.4412371057329112e-04 +0.0000000000000000e+00 +9.9999994078943433e-01
4.5999999999999996e+00 +6.9822679271083157e+00 +0.0000000000000000e+00 +4.5999999051305869e+00 -3.5177091277564402e-04 +0.0000000000000000e+00 +9.9999993812861077e-01
4.6999999999999993e+00 +6.9822323676569420e+00 +0.0000000000000000e+00 +4.6999998988079703e+00 -3.5941811464534987e-04 +0.0000000000000000e+00 +9.9999993540930754e-01
4.7999999999999989e+00 +6.9821960434853994e+00 +0.0000000000000000e+00 +4.7999998922104989e+00 -3.6706531613994178e-04 +0.0000000000000000e+00 +9.9999993263152476e-01
4.8999999999999986e+00 +6.9821589545937277e+00 +0.0000000000000000e+00 +4.8999998853323259e+00 -3.7471251722997172e-04 +0.0000000000000000e+00 +9.9999992979526242e-01
4.9999999999999982e+00 +6.9821211009819679e+00 +0.0000000000000000e+00 +4.9999998781676025e+00 -3.8235971789898866e-04 +0.0000000000000000e+00 +9.9999992690052053e-01
5.0999999999999979e+00 +6.9820824826501626e+00 +0.0000000000000000e+00 +5.0999998707104810e+00 -3.9000691814383909e-04 +0.0000000000000000e+00 +9.9999992394729920e-01
5.1999999999999975e+00 +6.9820430995983536e+00 +0.0000000000000000e+00 +5.1999998629551136e+00 -3.9765411797820587e-04 +0.0000000000000000e+00 +9.9999992093559831e-01
5.2999999999999972e+00 +6.9820029518265798e+00 +0.0000000000000000e+00 +5.2999998548956517e+00 -4.0530131743616763e-04 +0.0000000000000000e+00 +9.9999991786541786e-01
5.3999999999999968e+00 +6.9819620393348769e+00 +0.0000000000000000e+00 +5.3999998465262475e+00 -4.1294851657253660e-04 +0.0000000000000000e+00 +9.9999991473675787e-01
5.4999999999999964e+00 +6.9819203621232733e+00 +0.0000000000000000e+00 +5.4999998378410533e+00 -4.2059571546287407e-04 +0.0000000000000000e+00 +9.9999991154961831e-01
5.5999999999999961e+00 +6.9818779201917893e+00 +0.0000000000000000e+00 +5.5999998288342212e+00 -4.2824291420350707e-04 +0.0000000000000000e+00 +9.9999990830399921e-01
5.6999999999999957e+00 +6.9818347135404339e+00 +0.0000000000000000e+00 +5.6999998194999035e+00 -4.3589011291154554e-04 +0.0000000000000000e+00 +9.9999990499990044e-01
5.7999999999999954e+00 +6.9817907421692036e+00 +0.0000000000000000e+00 +5.7999998098322516e+00 -4.4353731172490065e-04 +0.0000000000000000e+00 +9.9999990163732189e-01
5.8999999999999950e+00 +6.9817460060780805e+00 +0.0000000000000000e+00 +5.8999997998254186e+00 -4.5118451080230370e-04 +0.0000000000000000e+00 +9.9999989821626356e-01
5.9999999999999947e+00 +6.9817005052670291e+00 +0.0000000000000000e+00 +5.9999997894735557e+00 -4.5883171032332602e-04 +0.0000000000000000e+00 +9.9999989473672535e-01
6.0999999999999943e+00 +6.9816542397359944e+00 +0.0000000000000000e+00 +6.0999997787708145e+00 -4.6647891048678957e-04 +0.0000000000000000e+00 +9.9999989119870725e-01
6.1999999999999940e+00 +6.9816072094849035e+00 +0.0000000000000000e+00 +6.1999997677113479e+00 -4.7412611149307400e-04 +0.0000000000000000e+00 +9.9999988760220904e-01
6.2999999999999936e+00 +6.9815594145136615e+00 +0.0000000000000000e+00 +6.2999997562893073e+00 -4.8177331352640651e-04 +0.0000000000000000e+00 +9.9999988394723061e-01
6.3999999999999932e+00 +6.9815108548221581e+00 +0.0000000000000000e+00 +6.3999997444988450e+00 -4.8942051675324302e-04 +0.0000000000000000e+00 +9.9999988023377184e-01
6.4999999999999929e+00 +6.9814615304102663e+00 +0.0000000000000000e+00 +6.4999997323341123e+00 -4.9706772132225791e-04 +0.0000000000000000e+00 +9.9999987646183275e-01
6.5999999999999925e+00 +6.9814114412778450e+00 +0.0000000000000000e+00 +6.5999997197892624e+00 -5.0471492736433384e-04 +0.0000000000000000e+00 +9.9999987263141310e-01
6.6999999999999922e+00 +6.9813605874247404e+00 +0.0000000000000000e+00 +6.6999997068584456e+00 -5.1236213499255071e-04 +0.0000000000000000e+00 +9.9999986874251290e-01
6.7999999999999918e+00 +6.9813089688507901e+00 +0.0000000000000000e+00 +6.7999996935358151e+00 -5.2000934430217443e-04 +0.0000000000000000e+00 +9.9999986479513203e-01
6.8999999999999915e+00 +6.9812565855558217e+00 +0.0000000000000000e+00 +6.8999996798155223e+00 -5.2765655537064524e-04 +0.0000000000000000e+00 +9.9999986078927039e-01
6.9999999999999911e+00 +6.9812034375396559e+00 +0.0000000000000000e+00 +6.9999996656917194e+00 -5.3530376825756520e-04 +0.0000000000000000e+00 +9.9999985672492786e-01
7.0999999999999908e+00 +6.9811495248021087e+00 +0.0000000000000000e+00 +7.0999996511585586e+00 -5.4295098300482863e-04 +0.0000000000000000e+00 +9.9999985260210444e-01
7.1999999999999904e+00 +6.9810948473429919e+00 +0.0000000000000000e+00 +7.1999996362101912e+00 -5.5059819963818263e-04 +0.0000000000000000e+00 +9.9999984842080003e-01
7.2999999999999901e+00 +6.9810394051621172e+00 +0.0000000000000000e+00 +7.2999996208407696e+00 -5.5824541816880022e-04 +0.0000000000000000e+00 +9.9999984418101462e-01
7.3999999999999897e+00 +6.9809831982592945e+00 +0.0000000000000000e+00 +7.3999996050444450e+00 -5.6589263859343315e-04 +0.0000000000000000e+00 +9.9999983988274821e-01
7.4999999999999893e+00 +6.9809262266343355e+00 +0.0000000000000000e+00 +7.4999995888153697e+00 -5.7353986089442234e-04 +0.0000000000000000e+00 +9.9999983552600069e-01
7.5999999999999890e+00 +6.9808684902870537e+00 +0.0000000000000000e+00 +7.5999995721476958e+00 -5.8118708503970893e-04 +0.0000000000000000e+00 +9.9999983111077206e-01
7.6999999999999886e+00 +6.9808099892172670e+00 +0.0000000000000000e+00 +7.6999995550355749e+00 -5.8883431098284591e-04 +0.0000000000000000e+00 +9.9999982663706233e-01
7.7999999999999883e+00 +6.9807507234247987e+00 +0.0000000000000000e+00 +7.7999995374731590e+00 -5.9648153866300943e-04 +0.0000000000000000e+00 +9.9999982210487148e-01
7.8999999999999879e+00 +6.9806906929094792e+00 +0.0000000000000000e+00 +7.8999995194545996e+00 -6.0412876800501126e-04 +0.0000000000000000e+00 +9.9999981751419942e-01
7.9999999999999876e+00 +6.9806298976711458e+00 +0.0000000000000000e+00 +7.9999995009740488e+00 -6.1177599891931115e-04 +0.0000000000000000e+00 +9.9999981286504624e-01
8.0999999999999872e+00 +6.9805683377096468e+00 +0.0000000000000000e+00 +8.0999994820256589e+00 -6.1942323130275226e-04 +0.0000000000000000e+00 +9.9999980815741207e-01
8.1999999999999869e+00 +6.9805060130248400e+00 +0.0000000000000000e+00 +8.1999994626035821e+00 -6.2707046504651917e-04 +0.0000000000000000e+00 +9.9999980339129679e-01
8.2999999999999865e+00 +6.9804429236165957e+00 +0.0000000000000000e+00 +8.2999994427019690e+00 -6.3471770004408230e-04 +0.0000000000000000e+00 +9.9999979856670052e-01
8.3999999999999861e+00 +6.9803790694847931e+00 +0.0000000000000000e+00 +8.3999994223149717e+00 -6.4236493619190848e-04 +0.0000000000000000e+00 +9.9999979368362324e-01
8.4999999999999858e+00 +6.9803144506293222e+00 +0.0000000000000000e+00 +8.4999994014367442e+00 -6.5001217338944868e-04 +0.0000000000000000e+00 +9.9999978874206508e-01
8.5999999999999854e+00 +6.9802490670500834e+00 +0.0000000000000000e+00 +8.5999993800614352e+00 -6.5765941153912472e-04 +0.0000000000000000e+00 +9.9999978374202603e-01
8.6999999999999851e+00 +6.9801829187469862e+00 +0.0000000000000000e+00 +8.6999993581831987e+00 -6.6530665054631588e-04 +0.0000000000000000e+00 +9.9999977868350609e-01
8.7999999999999847e+00 +6.9801160057199487e+00 +0.0000000000000000e+00 +8.7999993357961870e+00 -6.7295389031934538e-04 +0.0000000000000000e+00 +9.9999977356650538e-01
8.8999999999999844e+00 +6.9800483279688992e+00 +0.0000000000000000e+00 +8.8999993128945505e+00 -6.8060113076946586e-04 +0.0000000000000000e+00 +9.9999976839102389e-01
8.9999999999999840e+00 +6.9799798854937745e+00 +0.0000000000000000e+00 +8.9999992894724414e+00 -6.8824837181084505e-04 +0.0000000000000000e+00 +9.9999976315706163e-01
9.0999999999999837e+00 +6.9799106782945195e+00 +0.0000000000000000e+00 +9.0999992655240121e+00 -6.9589561336151433e-04 +0.0000000000000000e+00 +9.9999975786461870e-01
9.1999999999999833e+00 +6.9798407063710872e+00 +0.0000000000000000e+00 +9.1999992410434146e+00 -7.0354285535395654e-04 +0.0000000000000000e+00 +9.9999975251369511e-01
9.2999999999999829e+00 +6.9797699697234359e+00 +0.0000000000000000e+00 +9.2999992160248013e+00 -7.1119009774570400e-04 +0.0000000000000000e+00 +9.9999974710429085e-01
9.3999999999999826e+00 +6.9796984683515255e+00 +0.0000000000000000e+00 +9.3999991904623243e+00 -7.1883734052030591e-04 +0.0000000000000000e+00 +9.9999974163640593e-01
9.4999999999999822e+00 +6.9796262022553188e+00 +0.0000000000000000e+00 +9.4999991643501343e+00 -7.2648458368733187e-04 +0.0000000000000000e+00 +9.9999973611004034e-01
9.5999999999999819e+00 +6.9795531714347741e+00 +0.0000000000000000e+00 +9.5999991376823832e+00 -7.3413182728237591e-04 +0.0000000000000000e+00 +9.9999973052519409e-01
9.6999999999999815e+00 +6.9794793758898459e+00 +0.0000000000000000e+00 +9.6999991104532235e+00 -7.4177907136706051e-04 +0.0000000000000000e+00 +9.9999972488186706e-01
9.7999999999999812e+00 +6.9794048156204811e+00 +0.0000000000000000e+00 +9.7999990826568073e+00 -7.4942631602904059e-04 +0.0000000000000000e+00 +9.9999971918005925e-01
9.8999999999999808e+00 +6.9793294906266166e+00 +0.0000000000000000e+00 +9.8999990542872869e+00 -7.5707356138200775e-04 +0.0000000000000000e+00 +9.9999971341977056e-01
9.9999999999999805e+00 +6.9792534009081768e+00 +0.0000000000000000e+00 +9.9999990253388127e+00 -7.6472080756569475e-04 +0.0000000000000000e+00 +9.9999970760100076e-01
1.0099999999999980e+01 +6.9791765464650704e+00 +0.0000000000000000e+00 +1.0099998995805537e+01 -7.7236805474346459e-04 +0.0000000000000000e+00 +9.9999970172374975e-01
1.0199999999999980e+01 +6.9790989272971897e+00 +0.0000000000000000e+00 +1.0199998965681612e+01 -7.8001530307574864e-04 +0.0000000000000000e+00 +9.9999969578801740e-01
1.0299999999999979e+01 +6.9790205434044124e+00 +0.0000000000000000e+00 +1.0299998934961190e+01 -7.8766255269348859e-04 +0.0000000000000000e+00 +9.9999968979380360e-01
1.0399999999999979e+01 +6.9789413947866050e+00 +0.0000000000000000e+00 +1.0399998903638423e+01 -7.9530980369573161e-04 +0.0000000000000000e+00 +9.9999968374110826e-01
1.0499999999999979e+01 +6.9788614814436247e+00 +0.0000000000000000e+00 +1.0499998871707461e+01 -8.0295705614964253e-04 +0.0000000000000000e+00 +9.9999967762993125e-01
1.0599999999999978e+01 +6.9787808033753249e+00 +0.0000000000000000e+00 +1.0599998839162460e+01 -8.1060431009051515e-04 +0.0000000000000000e+00 +9.9999967146027247e-01
1.0699999999999978e+01 +6.9786993605815564e+00 +0.0000000000000000e+00 +1.0699998805997568e+01 -8.1825156552178455e-04 +0.0000000000000000e+00 +9.9999966523213191e-01
1.0799999999999978e+01 +6.9786171530621717e+00 +0.0000000000000000e+00 +1.0799998772206937e+01 -8.2589882241503986e-04 +0.0000000000000000e+00 +9.9999965894550957e-01
1.0899999999999977e+01 +6.9785341808170269e+00 +0.0000000000000000e+00 +1.0899998737784721e+01 -8.3354608071003653e-04 +0.0000000000000000e+00 +9.9999965260040546e-01
1.0999999999999977e+01 +6.9784504438459862e+00 +0.0000000000000000e+00 +1.0999998702725069e+01 -8.4119334031470985e-04 +0.0000000000000000e+00 +9.9999964619681969e-01
1.1099999999999977e+01 +6.9783659421489244e+00 +0.0000000000000000e+00 +1.1099998667022135e+01 -8.4884060110707699e-04 +0.0000000000000000e+00 +9.9999963973475225e-01
1.1199999999999976e+01 +6.9782806757257294e+00 +0.0000000000000000e+00 +1.1199998630670070e+01 -8.5648786295602431e-04 +0.0000000000000000e+00 +9.9999963321420327e-01
1.1299999999999976e+01 +6.9781946445763019e+00 +0.0000000000000000e+00 +1.1299998593663027e+01 -8.6413512574207748e-04 +0.0000000000000000e+00 +9.9999962663517272e-01
1.1399999999999975e+01 +6.9781078487005530e+00 +0.0000000000000000e+00 +1.1399998555995156e+01 -8.7178238935927180e-04 +0.0000000000000000e+00 +9.9999961999766085e-01
1.1499999999999975e+01 +6.9780202880984055e+00 +0.0000000000000000e+00 +1.1499998517660609e+01 -8.7942965371513198e-04 +0.0000000000000000e+00 +9.9999961330166753e-01
1.1599999999999975e+01 +6.9779319627697882e+00 +0.0000000000000000e+00 +1.1599998478653539e+01 -8.8707691873065198e-04 +0.0000000000000000e+00 +9.9999960654719300e-01
1.1699999999999974e+01 +6.9778428727146391e+00 +0.0000000000000000e+00 +1.1699998438968098e+01 -8.9472418434027423e-04 +0.0000000000000000e+00 +9.9999959973423713e-01
1.1799999999999974e+01 +6.9777530179329021e+00 +0.0000000000000000e+00 +1.1799998398598438e+01 -9.0237145049186800e-04 +0.0000000000000000e+00 +9.9999959286280005e-01
