# multipoles
# s[mm] polynom_b[n=0][T/m^n] polynom_b[n=1][T/m^n] polynom_b[n=2][T/m^n] polynom_b[n=3][T/m^n] polynom_b[n=4][T/m^n] polynom_b[n=5][T/m^n] polynom_b[n=6][T/m^n] 
+0.0000000000000000e+00 -3.4938439913290420e-01 +7.3977814010661447e-01 +6.6021245768208923e+00 +2.0714606223571689e+01 +2.5445761759022324e+02 +1.7748153710081508e+04 +4.4059498483389597e+06 
-1.0000000000000001e-01 -3.4938423992757250e-01 +7.3980088484695405e-01 +6.5963842739866596e+00 +1.9660128688852048e+01 +4.0255894259421194e+02 +2.5150547184484876e+04 +3.6311762691381979e+06 
-2.0000000000000001e-01 -3.4938409053750347e-01 +7.3983075429045730e-01 +6.5894461016220101e+00 +1.8462882225456628e+01 +5.8897640332032381e+02 +3.3195678124814665e+04 +2.6363274858666076e+06 
-3.0000000000000004e-01 -3.4938395097281427e-01 +7.3986603138503781e-01 +6.5815928841160654e+00 +1.7167989120556179e+01 +8.0448384702381895e+02 +4.1623976649695731e+04 +1.4771468440904692e+06 
-4.0000000000000002e-01 -3.4938382124363765e-01 +7.3990499907243168e-01 +6.5731074459543155e+00 +1.5820571784955018e+01 +1.0398551402153446e+03 +5.0175872230483503e+04 +2.0937753321647752e+05 
-5.0000000000000000e-01 -3.4938370136007968e-01 +7.3994594029372696e-01 +6.5642726068359973e+00 +1.4465752668431232e+01 +1.2858642527393245e+03 +5.8591793747895594e+04 -1.1112377661094861e+06 
-5.9999999999999998e-01 -3.4938359133224345e-01 +7.3998713799071048e-01 +6.5553711858532617e+00 +1.3148654284641097e+01 +1.5332851626323202e+03 +6.6612168939588926e+04 -2.4289563632020624e+06 
-6.9999999999999996e-01 -3.4938349117018574e-01 +7.4002687510862009e-01 +6.5466859962246406e+00 +1.1914399205628692e+01 +1.7728919484694295e+03 +7.3977424001487598e+04 -3.6880359517549798e+06 
-7.9999999999999993e-01 -3.4938340088393488e-01 +7.4006343459863544e-01 +6.5384998486133874e+00 +1.0808110060255219e+01 +1.9954587131536809e+03 +8.0427983168168401e+04 -4.8327341885674978e+06 
-8.9999999999999991e-01 -3.4938332048347676e-01 +7.4009509942160834e-01 +6.5310955498378620e+00 +9.8749094916299445e+00 +2.1917595976440393e+03 +8.5704268556310024e+04 -5.8073087052407451e+06 
-9.9999999999999989e-01 -3.4938324997870890e-01 +7.4012015254833030e-01 +6.5247558979979070e+00 +9.1599202219978064e+00 +2.3525688619025927e+03 +8.9546699351659918e+04 -6.5560174390545432e+06 
-1.0999999999999999e+00 -3.4938318953589498e-01 +7.4013718982298704e-01 +6.5197256641051506e+00 +8.6994038745618187e+00 +2.4704670635570592e+03 +9.1752213210935530e+04 -7.0358374017514586e+06 
-1.2000000000000000e+00 -3.4938313986111075e-01 +7.4014608933224113e-01 +6.5160826181521365e+00 +8.4927253615077785e+00 +2.5455844965962474e+03 +9.2354592681182185e+04 -7.2563425396955786e+06 
-1.3000000000000000e+00 -3.4938310177386139e-01 +7.4014705760870914e-01 +6.5138590269191186e+00 +8.5296558152452366e+00 +2.5800210258090196e+03 +9.1449567393512058e+04 -7.2406928212690055e+06 
-1.4000000000000001e+00 -3.4938307609360736e-01 +7.4014030117264729e-01 +6.5130871527891152e+00 +8.7999667352290434e+00 +2.5758765786590952e+03 +8.9132865811627693e+04 -7.0120484519364750e+06 
-1.5000000000000002e+00 -3.4938306363978111e-01 +7.4012602652081028e-01 +6.5137992557233364e+00 +9.2934302911822169e+00 +2.5352511098762661e+03 +8.5500213845569495e+04 -6.5935697254701648e+06 
-1.6000000000000003e+00 -3.4938306523179341e-01 +7.4010444012853294e-01 +6.5160275940733436e+00 +9.9998192167328206e+00 +2.4602445857981165e+03 +8.0647335928490618e+04 -6.0084169616107559e+06 
-1.7000000000000004e+00 -3.4938308168902749e-01 +7.4007574844132551e-01 +6.5198044241048354e+00 +1.0908907025012518e+01 +2.3529569929898144e+03 +7.4669954169069126e+04 -5.2797505606748099e+06 
-1.8000000000000005e+00 -3.4938311383083831e-01 +7.4004015787360022e-01 +6.5251619997369437e+00 +1.2010468009204185e+01 +2.2154883455126619e+03 +6.7663788779615992e+04 -4.4307310574725997e+06 
-1.9000000000000006e+00 -3.4938316247655876e-01 +7.3999787480461721e-01 +6.5321325731313191e+00 +1.3294277323615507e+01 +2.0499386751108373e+03 +5.9724558036408445e+04 -3.4845190921728229e+06 
-2.0000000000000004e+00 -3.4938322844550596e-01 +7.3994910557468452e-01 +6.5407483962809687e+00 +1.4750111051317345e+01 +1.8584079966374093e+03 +5.0947978359404609e+04 -2.4642752454253193e+06 
-2.1000000000000005e+00 -3.4938331170304443e-01 +7.3989427437701094e-01 +6.5509799195305725e+00 +1.6361710126769236e+01 +1.6435854267130439e+03 +4.1457732075863314e+04 -1.3925889207424205e+06 
-2.2000000000000006e+00 -3.4938340889094510e-01 +7.3983465932772474e-01 +6.5625597363051797e+00 +1.8089906208478130e+01 +1.4103532603813130e+03 +3.1476756341082517e+04 -2.8890941082105442e+05 
-2.3000000000000007e+00 -3.4938351584352068e-01 +7.3977174747393937e-01 +6.5751633862828678e+00 +1.9890117193520659e+01 +1.1640988887421815e+03 +2.1249600404643432e+04 +8.2833147240615159e+05 
-2.4000000000000008e+00 -3.4938362839517340e-01 +7.3970702587946147e-01 +6.5884664183812509e+00 +2.1717760476291371e+01 +9.1020958784488516e+02 +1.1020815398028728e+04 +1.9407021752286539e+06 
-2.5000000000000009e+00 -3.4938374238041475e-01 +7.3964198162919759e-01 +6.6021443930033801e+00 +2.3528252800301082e+01 +6.5407248434605765e+02 +1.0349551054434903e+03 +3.0297715248810463e+06 
-2.6000000000000010e+00 -3.4938385363386670e-01 +7.3957810183141948e-01 +6.6158728818782366e+00 +2.5277010188612987e+01 +4.0107456668559826e+02 -8.4634238206632854e+03 +4.0771086398542547e+06 
-2.7000000000000011e+00 -3.4938395799026545e-01 +7.3951687362265262e-01 +6.6293274682941403e+00 +2.6919447789347323e+01 +1.5660268848246744e+02 -1.7229761130960367e+04 +5.0642828799957130e+06 
-2.8000000000000012e+00 -3.4938405128449668e-01 +7.3945978416879032e-01 +6.6421837509489663e+00 +2.8410979852560022e+01 -7.3956495454043520e+01 -2.5019493069485467e+04 +5.9728641123318728e+06 
-2.9000000000000012e+00 -3.4938412935159624e-01 +7.3940832067187745e-01 +6.6541173442088253e+00 +2.9707019515960717e+01 -2.8521652729753100e+02 -3.1588051283538149e+04 +6.7844226696538692e+06 
-3.0000000000000013e+00 -3.4938418802675475e-01 +7.3936397036916801e-01 +6.6648038777495424e+00 +3.0762978848865828e+01 -4.7179112811575641e+02 -3.6690863394449596e+04 +7.4805292145307735e+06 
-3.1000000000000014e+00 -3.4938422472177783e-01 +7.3932799492954204e-01 +6.6739923056211978e+00 +3.1544122775787457e+01 -6.2947173031063426e+02 -4.0146098377066752e+04 +8.0471180181647735e+06 
-3.2000000000000015e+00 -3.4938424304605498e-01 +7.3930076413358070e-01 +6.6817152635090054e+00 +3.2055086782013923e+01 -7.5870367471246561e+02 -4.2019682000877197e+04 +8.4876496525506005e+06 
-3.3000000000000016e+00 -3.4938424813042246e-01 +7.3928242724173676e-01 +6.6880737727318431e+00 +3.2310353749026490e+01 -8.6107908639612651e+02 -4.2438780199173307e+04 +8.8099669864109103e+06 
-3.4000000000000017e+00 -3.4938424510575711e-01 +7.3927313354306723e-01 +6.6931688513092009e+00 +3.2324405265597726e+01 -9.3818999127903817e+02 -4.1530549617691599e+04 +9.0219124273541197e+06 
-3.5000000000000018e+00 -3.4938423910295374e-01 +7.3927303235818964e-01 +6.6971015102379123e+00 +3.2111721494827258e+01 -9.9162824102848015e+02 -3.9422136763128321e+04 +9.1313275746139511e+06 
-3.6000000000000019e+00 -3.4938423525293555e-01 +7.3928227303621741e-01 +6.6999727542148362e+00 +3.1686781242397451e+01 -1.0229855261904081e+03 -3.6240678305965826e+04 +9.1460532942405120e+06 
-3.7000000000000020e+00 -3.4938423868665425e-01 +7.3930100496171969e-01 +6.7018835812857658e+00 +3.1064061714345254e+01 -1.0338533691642708e+03 -3.2113299511580652e+04 +9.0739296975984182e+06 
-3.8000000000000020e+00 -3.4938425453508415e-01 +7.3932937755291006e-01 +6.7029349813638639e+00 +3.0258038540751958e+01 -1.0258230947920533e+03 -2.7167114258320373e+04 +8.9227960125179160e+06 
-3.9000000000000021e+00 -3.4938428792922166e-01 +7.3936754026593443e-01 +6.7032279356492248e+00 +2.9283185610864464e+01 -1.0004858189952207e+03 -2.1529223918729655e+04 +8.7004905419378374e+06 
-4.0000000000000018e+00 -3.4938434400008539e-01 +7.3941564259265025e-01 +6.7028634160419456e+00 +2.8153975103720168e+01 -9.5943243700042649e+02 -1.5326717421803305e+04 +8.4148506192035079e+06 
-4.1000000000000014e+00 -3.4938442606294878e-01 +7.3947343596319204e-01 +6.7018994695787582e+00 +2.6887874178651533e+01 -9.0376759215390621e+02 -8.6840610316518832e+03 +8.0715605703373067e+06 
-4.2000000000000011e+00 -3.4938453045088042e-01 +7.3953903306210178e-01 +6.7002762622733174e+00 +2.5514662652298345e+01 -8.3356352022727094e+02 -1.7143840349063421e+03 +7.6715959709680537e+06 
-4.3000000000000007e+00 -3.4938465182347117e-01 +7.3961012365480761e-01 +6.6979183291034268e+00 +2.4067300687507693e+01 -7.4886910170635304e+02 +5.4721875762202826e+03 +7.2157588367327983e+06 
-4.4000000000000004e+00 -3.4938478484021301e-01 +7.3968439748847659e-01 +6.6947502223619404e+00 +2.2578749905758936e+01 -6.4973383800808904e+02 +1.2765516220735479e+04 +6.7048551045593945e+06 
-4.5000000000000000e+00 -3.4938492416046835e-01 +7.3975954428838708e-01 +6.6906965085728531e+00 +2.1081973608396670e+01 -5.3620780891029676e+02 +2.0055451083668635e+04 +6.1396944881218504e+06 
-4.5999999999999996e+00 -3.4938506444346196e-01 +7.3983325375894660e-01 +6.6856817700290350e+00 +1.9609936817813779e+01 -4.0834172470700241e+02 +2.7231827643619425e+04 +5.5210907983803097e+06 
-4.6999999999999993e+00 -3.4938520034829401e-01 +7.3990321557868621e-01 +6.6796306078250209e+00 +1.8195606480923416e+01 -2.6618699880512139e+02 +3.4184466301908615e+04 +4.8498623386155041e+06 
-4.7999999999999989e+00 -3.4938532653390014e-01 +7.3996711940133297e-01 +6.6724676385838508e+00 +1.6871951512770163e+01 -1.0979570318138722e+02 +4.0803171883471703e+04 +4.1268317505462389e+06 
-4.8999999999999986e+00 -3.4938543765905927e-01 +7.4002265485305996e-01 +6.6641174977717386e+00 +1.5671942931435128e+01 +6.0779347186897049e+01 +4.6977732676099273e+04 +3.3528264839197854e+06 
-4.9999999999999982e+00 -3.4938552838241160e-01 +7.4006751153567885e-01 +6.6545048443474943e+00 +1.4628553894812224e+01 +2.4548449105236793e+02 +5.2597920010123125e+04 +2.5286793495286377e+06 
-5.0999999999999979e+00 -3.4938559493406568e-01 +7.4010008258507376e-01 +6.6436478565524091e+00 +1.3765911788753003e+01 +4.4304734875213694e+02 +5.7576384829137169e+04 +1.6603321107437445e+06 
-5.1999999999999975e+00 -3.4938563931684125e-01 +7.4012159427200430e-01 +6.6318354010956284e+00 +1.3072093814830165e+01 +6.4918453351314190e+02 +6.1917934206138045e+04 +7.6584960534932197e+05 
-5.2999999999999972e+00 -3.4938566484729872e-01 +7.4013399032326188e-01 +6.6193979375465917e+00 +1.2525919927974105e+01 +8.5933123676667753e+02 +6.5650878332206557e+04 -1.3576979775132981e+05 
-5.3999999999999968e+00 -3.4938567484191319e-01 +7.4013921443943764e-01 +6.6066658721031324e+00 +1.2106210177860431e+01 +1.0689241249536915e+03 +6.8803528875110234e+04 -1.0255362683252976e+06 
-5.4999999999999964e+00 -3.4938567261710429e-01 +7.4013921028515994e-01 +6.5939695604341697e+00 +1.1791784890602926e+01 +1.2734013048681122e+03 +7.1404198500640487e+04 -1.8844684477564963e+06 
-5.5999999999999961e+00 -3.4938566148924888e-01 +7.4013592148517460e-01 +6.5816393071031847e+00 +1.1561464734922493e+01 +1.4682023584875492e+03 +7.3481200648463957e+04 -2.6935936959883170e+06 
-5.6999999999999957e+00 -3.4938564477464834e-01 +7.4013129162591162e-01 +6.5700053592116339e+00 +1.1394070638794856e+01 +1.6487684895360760e+03 +7.5062850151459279e+04 -3.4339488760032556e+06 
-5.7999999999999954e+00 -3.4938562578954724e-01 +7.4012726425112108e-01 +6.5593979065634107e+00 +1.1268423873122099e+01 +1.8105425429636346e+03 +7.6177462892992990e+04 -4.0865805237084618e+06 
-5.8999999999999950e+00 -3.4938560785012501e-01 +7.4012578286084163e-01 +6.5501470785344047e+00 +1.1163346042308902e+01 +1.9489690890904596e+03 +7.6853356002528759e+04 -4.6325453322363775e+06 
-5.9999999999999947e+00 -3.4938559427246835e-01 +7.4012879090251005e-01 +6.5425829367255552e+00 +1.1057659134790331e+01 +2.0594945783506018e+03 +7.7118847910806639e+04 -5.0529109510936504e+06 
-6.0999999999999943e+00 -3.4938558787396196e-01 +7.4013760432988429e-01 +6.5369465145991859e+00 +1.0936416696807354e+01 +2.1388790723577263e+03 +7.6998376804185958e+04 -5.3344421675380450e+06 
-6.1999999999999940e+00 -3.4938558990335034e-01 +7.4015107310615968e-01 +6.5332155515828125e+00 +1.0809520850102794e+01 +2.1875850119211304e+03 +7.6503682113536226e+04 -5.4804158367361110e+06 
-6.2999999999999936e+00 -3.4938560132219088e-01 +7.4016743778696903e-01 +6.5313248218546240e+00 +1.0693091415705732e+01 +2.2066173098243439e+03 +7.5644216690921094e+04 -5.4967019992889827e+06 
-6.3999999999999932e+00 -3.4938562309201848e-01 +7.4018493888395498e-01 +6.5312091415696498e+00 +1.0603249889959191e+01 +2.1969796498124183e+03 +7.4429423530014144e+04 -5.3891636819616072e+06 
-6.4999999999999929e+00 -3.4938565617432871e-01 +7.4020181686826314e-01 +6.5328033673614181e+00 +1.0556119511804859e+01 +2.1596744915819495e+03 +7.2868734121008340e+04 -5.1636567707103360e+06 
-6.5999999999999925e+00 -3.4938570153056414e-01 +7.4021631217115691e-01 +6.5360423967475105e+00 +1.0567825271722077e+01 +2.0957030411820642e+03 +7.0971568331575574e+04 -4.8260298046133379e+06 
-6.6999999999999922e+00 -3.4938576012212635e-01 +7.4022666518133706e-01 +6.5408611716628435e+00 +1.0654494015840831e+01 +2.0060651643159715e+03 +6.8747333732341460e+04 -4.3821235069312183e+06 
-6.7999999999999918e+00 -3.4938583291037945e-01 +7.4023111624387272e-01 +6.5471946803794117e+00 +1.0832254498528343e+01 +1.8917593334683779e+03 +6.6205425239653865e+04 -3.8377704843632081e+06 
-6.8999999999999915e+00 -3.4938592085661946e-01 +7.4022790565845342e-01 +6.5549779562657555e+00 +1.1117237453582684e+01 +1.7537826268211591e+03 +6.3355224651314158e+04 -3.1987951500946586e+06 
-6.9999999999999911e+00 -3.4938602492211185e-01 +7.4021527367774642e-01 +6.5641460836217371e+00 +1.1525575924592378e+01 +1.5931306356291211e+03 +6.0206098187109703e+04 -2.4710133351091272e+06 
-7.0999999999999908e+00 -3.4938614517995881e-01 +7.4019207660019426e-01 +6.5745794954792798e+00 +1.2067519065904982e+01 +1.4116900003794256e+03 +5.6769996507232499e+04 -1.6636781128683703e+06 
-7.1999999999999904e+00 -3.4938627822270790e-01 +7.4015963519368699e-01 +6.5859128105758753e+00 +1.2730052077689221e+01 +1.2150647906070174e+03 +5.3062290208708655e+04 -7.9891124349066510e+05 
-7.2999999999999901e+00 -3.4938641979068158e-01 +7.4011988586933686e-01 +6.5977123916321290e+00 +1.3494565746550997e+01 +1.0098244543420337e+03 +4.9096105849866108e+04 +9.8205480285782280e+04 
-7.3999999999999897e+00 -3.4938656562453191e-01 +7.4007476521318527e-01 +6.6095446047841069e+00 +1.4342445905462469e+01 +8.0253854643519401e+02 +4.4884596702319803e+04 +1.0025898324433038e+06 
-7.4999999999999893e+00 -3.4938671146526162e-01 +7.4002621000296298e-01 +6.6209758215129009e+00 +1.5255072508932884e+01 +5.9977674292590916e+02 +4.0440950367584672e+04 +1.8891588231824855e+06 
-7.5999999999999890e+00 -3.4938685305424061e-01 +7.3997615721427934e-01 +6.6315724184401628e+00 +1.6213819444999157e+01 +4.0810885863729629e+02 +3.5778389865079153e+04 +2.7328285930953790e+06 
-7.6999999999999886e+00 -3.4938698613322983e-01 +7.3992654402515834e-01 +6.6409007794566985e+00 +1.7200054385973370e+01 +2.3410481277139374e+02 +3.0910174530292170e+04 +3.5085145729986848e+06 
-7.7999999999999883e+00 -3.4938710644437143e-01 +7.3987930782480182e-01 +6.6485272929510133e+00 +1.8195138524043305e+01 +8.4334690377767814e+01 +2.5849601548207229e+04 +4.1911311816901155e+06 
-7.8999999999999879e+00 -3.4938720973020132e-01 +7.3983638622080339e-01 +6.6540183517776974e+00 +1.9180426346118669e+01 -3.4631246520458994e+01 +2.0610007286838681e+04 +4.7555917581012640e+06 
-7.9999999999999876e+00 -3.4938729173372285e-01 +7.3979971706958003e-01 +6.6569403640134430e+00 +2.0137264456123411e+01 -1.1622280929920414e+02 +1.5204775496340355e+04 +5.1768099724707752e+06 
-8.0999999999999872e+00 -3.4938734954643308e-01 +7.3977066342789843e-01 +6.6570145035108554e+00 +2.1052004352389705e+01 -1.5607747323398721e+02 +9.6473288668728583e+03 +5.4381966696872171e+06 
-8.1999999999999869e+00 -3.4938738507199635e-01 +7.3974824099977909e-01 +6.6545388642363941e+00 +2.1928966817195093e+01 -1.5732745959431551e+02 +3.9692058750505134e+03 +5.5487641939183893e+06 
-8.2999999999999865e+00 -3.4938740127653189e-01 +7.3973087349543754e-01 +6.6499460567576394e+00 +2.2776054024745335e+01 -1.2464625871493963e+02 -1.7861603135899231e+03 +5.5217948948680498e+06 
-8.3999999999999861e+00 -3.4938740112563432e-01 +7.3971698444805933e-01 +6.6436686529066931e+00 +2.3601171103580661e+01 -6.2706477293948062e+01 -7.5753460003707987e+03 +5.3705654714944838e+06 
-8.4999999999999858e+00 -3.4938738758436544e-01 +7.3970499717161198e-01 +6.6361391882767151e+00 +2.4412228230573515e+01 +2.3819982925355148e+01 -1.3354951365934256e+04 +5.1083482381242076e+06 
-8.5999999999999854e+00 -3.4938736361725309e-01 +7.3969333475182619e-01 +6.6277901632346659e+00 +2.5217140868139072e+01 +1.3026190430161816e+02 -1.9081601733142968e+04 +4.7484111989400927e+06 
-8.6999999999999851e+00 -3.4938733218826884e-01 +7.3968042004528578e-01 +6.6190540409507328e+00 +2.6023829739711598e+01 +2.5194879332126735e+02 -2.4711947217223624e+04 +4.3040178183247559e+06 
-8.7999999999999847e+00 -3.4938729626080556e-01 +7.3966467566493721e-01 +6.6103632455560462e+00 +2.6840221222989726e+01 +3.8421091443683332e+02 -3.0202664888403553e+04 +3.7884268343995246e+06 
-8.8999999999999844e+00 -3.4938725879766325e-01 +7.3964452397980407e-01 +6.6021501612595470e+00 +2.7674247315549646e+01 +5.2237930823732370e+02 -3.5510458395893678e+04 +3.2148921379808178e+06 
-8.9999999999999840e+00 -3.4938722276097400e-01 +7.3961838707078953e-01 +6.5948471207886410e+00 +2.8533847135935392e+01 +6.6178605316498010e+02 -4.0592070288228417e+04 +2.5966610882635624e+06 
-9.0999999999999837e+00 -3.4938719041405436e-01 +7.3958514984013823e-01 +6.5887893098094432e+00 +2.9422214969727325e+01 +7.9860033580519973e+02 -4.5401205072256205e+04 +1.9448637193693882e+06 
-9.1999999999999833e+00 -3.4938716193626984e-01 +7.3954551861954554e-01 +6.5839883027329931e+00 +3.0329433378256851e+01 +9.3061375211296115e+02 -4.9912133548490310e+04 +1.2723225293078790e+06 
-9.2999999999999829e+00 -3.4938713715826258e-01 +7.3950063804818222e-01 +6.5803904745265509e+00 +3.1244257222587475e+01 +1.0555753706717487e+03 -5.4115832172310649e+04 +5.9493303007240361e+05 
-9.3999999999999826e+00 -3.4938711591124649e-01 +7.3945165277379676e-01 +6.5779422640468530e+00 +3.2155444808550925e+01 +1.1712327557146432e+03 -5.8003305709574095e+04 -7.1400622449480477e+04 
-9.4999999999999822e+00 -3.4938709802694845e-01 +7.3939970751353401e-01 +6.5765901609377861e+00 +3.3051754972375349e+01 +1.2753324139661245e+03 -6.1565569642682705e+04 -7.1076818428183720e+05 
-9.5999999999999819e+00 -3.4938708333765051e-01 +7.3934594705423251e-01 +6.5762807102747498e+00 +3.3921947154114044e+01 +1.3656197046727607e+03 -6.4793650849567464e+04 -1.3072528671092924e+06 
-9.6999999999999815e+00 -3.4938707167617639e-01 +7.3929151625672751e-01 +6.5769605107208298e+00 +3.4754781335029314e+01 +1.4398388713233808e+03 -6.7678587431460226e+04 -1.8449314571329711e+06 
-9.7999999999999812e+00 -3.4938706287593407e-01 +7.3923756005579055e-01 +6.5785762189789363e+00 +3.5539018110623296e+01 +1.4957329568053294e+03 -7.0211429355529239e+04 -2.3078738864325052e+06 
-9.8999999999999808e+00 -3.4938705677088616e-01 +7.3918522346369508e-01 +6.5810745462097975e+00 +3.6263418665666613e+01 +1.5310438658581245e+03 -7.2383238551316026e+04 -2.6801434921641555e+06 
-9.9999999999999805e+00 -3.4938705319568963e-01 +7.3913565158398697e-01 +6.5844022756362870e+00 +3.6916744421367454e+01 +1.5435120390920301e+03 -7.4185082656951970e+04 -2.9457950825734390e+06 
-1.0099999999999980e+01 -3.4938705200797715e-01 +7.3908989190329999e-01 +6.5884852653387442e+00 +3.7489368652035466e+01 +1.5320025148736365e+03 -7.5608976579392736e+04 -3.0950266037491593e+06 
