# trajectory
# s[mm] rx[mm] ry[mm] rz[mm] px[rad] py[rad] pz[rad]
0.0000000000000000e+00 +6.4329999999999998e+00 +0.0000000000000000e+00 +0.0000000000000000e+00 +0.0000000000000000e+00 +0.0000000000000000e+00 +1.0000000000000000e+00
-1.0000000000000001e-01 +6.4329996403283793e+00 +0.0000000000000000e+00 -9.9999999999137584e-02 +7.1934323697961885e-06 +0.0000000000000000e+00 +9.9999999997412725e-01
-2.0000000000000001e-01 +6.4329985613135321e+00 +0.0000000000000000e+00 -1.9999999999310059e-01 +1.4386864553239631e-05 +0.0000000000000000e+00 +9.9999999989650901e-01
-3.0000000000000004e-01 +6.4329967629554750e+00 +0.0000000000000000e+00 -2.9999999997671450e-01 +2.1580296564890209e-05 +0.0000000000000000e+00 +9.9999999976714538e-01
-4.0000000000000002e-01 +6.4329942452542266e+00 +0.0000000000000000e+00 -3.9999999994480478e-01 +2.8773728361287896e-05 +0.0000000000000000e+00 +9.9999999958603625e-01
-5.0000000000000000e-01 +6.4329910082098136e+00 +0.0000000000000000e+00 -4.9999999989219690e-01 +3.5967159840951926e-05 +0.0000000000000000e+00 +9.9999999935318162e-01
-5.9999999999999998e-01 +6.4329870518222743e+00 +0.0000000000000000e+00 -5.9999999981371621e-01 +4.3160590844380285e-05 +0.0000000000000000e+00 +9.9999999906858161e-01
-6.9999999999999996e-01 +6.4329823760916671e+00 +0.0000000000000000e+00 -6.9999999970418836e-01 +5.0354021154049506e-05 +0.0000000000000000e+00 +9.9999999873223622e-01
-7.9999999999999993e-01 +6.4329769810180757e+00 +0.0000000000000000e+00 -7.9999999955843870e-01 +5.7547450494414826e-05 +0.0000000000000000e+00 +9.9999999834414544e-01
-8.9999999999999991e-01 +6.4329708666016119e+00 +0.0000000000000000e+00 -8.9999999937129260e-01 +6.4740878531910638e-05 +0.0000000000000000e+00 +9.9999999790430927e-01
-9.9999999999999989e-01 +6.4329640328424258e+00 +0.0000000000000000e+00 -9.9999999913757565e-01 +7.1934304874951313e-05 +0.0000000000000000e+00 +9.9999999741272783e-01
-1.0999999999999999e+00 +6.4329564797407084e+00 +0.0000000000000000e+00 -1.0999999988521134e+00 +7.9127729081171199e-05 +0.0000000000000000e+00 +9.9999999686940122e-01
-1.2000000000000000e+00 +6.4329482072966950e+00 +0.0000000000000000e+00 -1.1999999985097312e+00 +8.6321150737054080e-05 +0.0000000000000000e+00 +9.9999999627432945e-01
-1.3000000000000000e+00 +6.4329392155106566e+00 +0.0000000000000000e+00 -1.2999999981052546e+00 +9.3514569537561955e-05 +0.0000000000000000e+00 +9.9999999562751263e-01
-1.4000000000000001e+00 +6.4329295043828889e+00 +0.0000000000000000e+00 -1.3999999976335089e+00 +1.0070798529337409e-04 +0.0000000000000000e+00 +9.9999999492895086e-01
-1.5000000000000002e+00 +6.4329190739137019e+00 +0.0000000000000000e+00 -1.4999999970893199e+00 +1.0790139793088712e-04 +0.0000000000000000e+00 +9.9999999417864416e-01
-1.6000000000000003e+00 +6.4329079241034055e+00 +0.0000000000000000e+00 -1.5999999964675129e+00 +1.1509480749221500e-04 +0.0000000000000000e+00 +9.9999999337659262e-01
-1.7000000000000004e+00 +6.4328960549523009e+00 +0.0000000000000000e+00 -1.6999999957629135e+00 +1.2228821413518909e-04 +0.0000000000000000e+00 +9.9999999252279637e-01
-1.8000000000000005e+00 +6.4328834664606669e+00 +0.0000000000000000e+00 -1.7999999949703474e+00 +1.2948161813335803e-04 +0.0000000000000000e+00 +9.9999999161725528e-01
-1.9000000000000006e+00 +6.4328701586287496e+00 +0.0000000000000000e+00 -1.8999999940846397e+00 +1.3667501987598777e-04 +0.0000000000000000e+00 +9.9999999065996947e-01
-2.0000000000000004e+00 +6.4328561314567505e+00 +0.0000000000000000e+00 -1.9999999931006163e+00 +1.4386841986806134e-04 +0.0000000000000000e+00 +9.9999998965093884e-01
-2.1000000000000005e+00 +6.4328413849448145e+00 +0.0000000000000000e+00 -2.0999999920131027e+00 +1.5106181872066228e-04 +0.0000000000000000e+00 +9.9999998859016337e-01
-2.2000000000000006e+00 +6.4328259190930241e+00 +0.0000000000000000e+00 -2.1999999908169241e+00 +1.5825521704519282e-04 +0.0000000000000000e+00 +9.9999998747764307e-01
-2.3000000000000007e+00 +6.4328097339014061e+00 +0.0000000000000000e+00 -2.2999999895069063e+00 +1.6544861534759046e-04 +0.0000000000000000e+00 +9.9999998631337772e-01
-2.4000000000000008e+00 +6.4327928293699426e+00 +0.0000000000000000e+00 -2.3999999880778748e+00 +1.7264201401870854e-04 +0.0000000000000000e+00 +9.9999998509736732e-01
-2.5000000000000009e+00 +6.4327752054985812e+00 +0.0000000000000000e+00 -2.4999999865246552e+00 +1.7983541333431278e-04 +0.0000000000000000e+00 +9.9999998382961186e-01
-2.6000000000000010e+00 +6.4327568622872491e+00 +0.0000000000000000e+00 -2.5999999848420727e+00 +1.8702881345507763e-04 +0.0000000000000000e+00 +9.9999998251011124e-01
-2.7000000000000011e+00 +6.4327377997358619e+00 +0.0000000000000000e+00 -2.6999999830249526e+00 +1.9422221442658215e-04 +0.0000000000000000e+00 +9.9999998113886546e-01
-2.8000000000000012e+00 +6.4327180178443379e+00 +0.0000000000000000e+00 -2.7999999810681206e+00 +2.0141561617930569e-04 +0.0000000000000000e+00 +9.9999997971587451e-01
-2.9000000000000012e+00 +6.4326975166126061e+00 +0.0000000000000000e+00 -2.8999999789664024e+00 +2.0860901852862312e-04 +0.0000000000000000e+00 +9.9999997824113840e-01
-3.0000000000000013e+00 +6.4326762960406221e+00 +0.0000000000000000e+00 -2.9999999767146233e+00 +2.1580242117479978e-04 +0.0000000000000000e+00 +9.9999997671465712e-01
-3.1000000000000014e+00 +6.4326543561283751e+00 +0.0000000000000000e+00 -3.0999999743076088e+00 +2.2299582371135154e-04 +0.0000000000000000e+00 +9.9999997513643091e-01
-3.2000000000000015e+00 +6.4326316968758981e+00 +0.0000000000000000e+00 -3.1999999717401844e+00 +2.3018922571705914e-04 +0.0000000000000000e+00 +9.9999997350645975e-01
-3.3000000000000016e+00 +6.4326083182832612e+00 +0.0000000000000000e+00 -3.2999999690071755e+00 +2.3738262684798930e-04 +0.0000000000000000e+00 +9.9999997182474376e-01
-3.4000000000000017e+00 +6.4325842203505665e+00 +0.0000000000000000e+00 -3.3999999661034082e+00 +2.4457602684586639e-04 +0.0000000000000000e+00 +9.9999997009128305e-01
-3.5000000000000018e+00 +6.4325594030779358e+00 +0.0000000000000000e+00 -3.4999999630237073e+00 +2.5176942553807954e-04 +0.0000000000000000e+00 +9.9999996830607762e-01
-3.6000000000000019e+00 +6.4325338664655050e+00 +0.0000000000000000e+00 -3.5999999597628989e+00 +2.5896282283769057e-04 +0.0000000000000000e+00 +9.9999996646912759e-01
-3.7000000000000020e+00 +6.4325076105134142e+00 +0.0000000000000000e+00 -3.6999999563158079e+00 +2.6615621874344223e-04 +0.0000000000000000e+00 +9.9999996458043294e-01
-3.8000000000000020e+00 +6.4324806352217996e+00 +0.0000000000000000e+00 -3.7999999526772603e+00 +2.7334961333976736e-04 +0.0000000000000000e+00 +9.9999996263999369e-01
-3.9000000000000021e+00 +6.4324529405907844e+00 +0.0000000000000000e+00 -3.8999999488420816e+00 +2.8054300679679854e-04 +0.0000000000000000e+00 +9.9999996064780983e-01
-4.0000000000000018e+00 +6.4324245266204700e+00 +0.0000000000000000e+00 -3.9999999448050971e+00 +2.8773639937037837e-04 +0.0000000000000000e+00 +9.9999995860388136e-01
-4.1000000000000014e+00 +6.4323953933109284e+00 +0.0000000000000000e+00 -4.0999999405611325e+00 +2.9492979139487084e-04 +0.0000000000000000e+00 +9.9999995650820805e-01
-4.2000000000000011e+00 +6.4323655406621976e+00 +0.0000000000000000e+00 -4.1999999361050140e+00 +3.0212318320397489e-04 +0.0000000000000000e+00 +9.9999995436078992e-01
-4.3000000000000007e+00 +6.4323349686742857e+00 +0.0000000000000000e+00 -4.2999999314315662e+00 +3.0931657505152676e-04 +0.0000000000000000e+00 +9.9999995216162696e-01
-4.4000000000000004e+00 +6.4323036773471802e+00 +0.0000000000000000e+00 -4.3999999265356147e+00 +3.1650996710429132e-04 +0.0000000000000000e+00 +9.9999994991071905e-01
-4.5000000000000000e+00 +6.4322716666808555e+00 +0.0000000000000000e+00 -4.4999999214119848e+00 +3.2370335944195217e-04 +0.0000000000000000e+00 +9.9999994760806610e-01
-4.5999999999999996e+00 +6.4322389366752821e+00 +0.0000000000000000e+00 -4.5999999160555030e+00 +3.3089675205710101e-04 +0.0000000000000000e+00 +9.9999994525366820e-01
-4.6999999999999993e+00 +6.4322054873304371e+00 +0.0000000000000000e+00 -4.6999999104609937e+00 +3.3809014485522621e-04 +0.0000000000000000e+00 +9.9999994284752525e-01
-4.7999999999999989e+00 +6.4321713186463105e+00 +0.0000000000000000e+00 -4.7999999046232826e+00 +3.4528353765470108e-04 +0.0000000000000000e+00 +9.9999994038963747e-01
-4.8999999999999986e+00 +6.4321364306229150e+00 +0.0000000000000000e+00 -4.8999998985371960e+00 +3.5247693018677125e-04 +0.0000000000000000e+00 +9.9999993788000485e-01
-4.9999999999999982e+00 +6.4321008232602939e+00 +0.0000000000000000e+00 -4.9999998921975592e+00 +3.5967032209554140e-04 +0.0000000000000000e+00 +9.9999993531862752e-01
-5.0999999999999979e+00 +6.4320644965585307e+00 +0.0000000000000000e+00 -5.0999998855991970e+00 +3.6686371294669413e-04 +0.0000000000000000e+00 +9.9999993270550569e-01
-5.1999999999999975e+00 +6.4320274505177535e+00 +0.0000000000000000e+00 -5.1999998787369357e+00 +3.7405710232353789e-04 +0.0000000000000000e+00 +9.9999993004063958e-01
-5.2999999999999972e+00 +6.4319896851381255e+00 +0.0000000000000000e+00 -5.2999998716056007e+00 +3.8125048992306937e-04 +0.0000000000000000e+00 +9.9999992732402920e-01
-5.3999999999999968e+00 +6.4319512004198343e+00 +0.0000000000000000e+00 -5.3999998642000175e+00 +3.8844387556471685e-04 +0.0000000000000000e+00 +9.9999992455567477e-01
-5.4999999999999964e+00 +6.4319119963630795e+00 +0.0000000000000000e+00 -5.4999998565150117e+00 +3.9563725919035251e-04 +0.0000000000000000e+00 +9.9999992173557639e-01
-5.5999999999999961e+00 +6.4318720729680612e+00 +0.0000000000000000e+00 -5.5999998485454086e+00 +4.0283064086430505e-04 +0.0000000000000000e+00 +9.9999991886373396e-01
-5.6999999999999957e+00 +6.4318314302349657e+00 +0.0000000000000000e+00 -5.6999998402860337e+00 +4.1002402077337287e-04 +0.0000000000000000e+00 +9.9999991594014748e-01
-5.7999999999999954e+00 +6.4317900681639548e+00 +0.0000000000000000e+00 -5.7999998317317134e+00 +4.1721739922683800e-04 +0.0000000000000000e+00 +9.9999991296481694e-01
-5.8999999999999950e+00 +6.4317479867551546e+00 +0.0000000000000000e+00 -5.8999998228772723e+00 +4.2441077665648067e-04 +0.0000000000000000e+00 +9.9999990993774213e-01
-5.9999999999999947e+00 +6.4317051860086396e+00 +0.0000000000000000e+00 -5.9999998137175368e+00 +4.3160415361659453e-04 +0.0000000000000000e+00 +9.9999990685892282e-01
-6.0999999999999943e+00 +6.4316616659244250e+00 +0.0000000000000000e+00 -6.0999998042473322e+00 +4.3879753077693504e-04 +0.0000000000000000e+00 +9.9999990372835867e-01
-6.1999999999999940e+00 +6.4316174265024539e+00 +0.0000000000000000e+00 -6.1999997944614842e+00 +4.4599090884499466e-04 +0.0000000000000000e+00 +9.9999990054604948e-01
-6.2999999999999936e+00 +6.4315724677426029e+00 +0.0000000000000000e+00 -6.2999997843548172e+00 +4.5318428848826667e-04 +0.0000000000000000e+00 +9.9999989731199490e-01
-6.3999999999999932e+00 +6.4315267896446828e+00 +0.0000000000000000e+00 -6.3999997739221577e+00 +4.6037767032717526e-04 +0.0000000000000000e+00 +9.9999989402619460e-01
-6.4999999999999929e+00 +6.4314803922084449e+00 +0.0000000000000000e+00 -6.4999997631583311e+00 +4.6757105493507224e-04 +0.0000000000000000e+00 +9.9999989068864825e-01
-6.5999999999999925e+00 +6.4314332754335855e+00 +0.0000000000000000e+00 -6.5999997520581628e+00 +4.7476444283823345e-04 +0.0000000000000000e+00 +9.9999988729935552e-01
-6.6999999999999922e+00 +6.4313854393197509e+00 +0.0000000000000000e+00 -6.6999997406164775e+00 +4.8195783451585511e-04 +0.0000000000000000e+00 +9.9999988385831606e-01
-6.7999999999999918e+00 +6.4313368838665417e+00 +0.0000000000000000e+00 -6.7999997288281007e+00 +4.8915123040005001e-04 +0.0000000000000000e+00 +9.9999988036552967e-01
-6.8999999999999915e+00 +6.4312876090735180e+00 +0.0000000000000000e+00 -6.8999997166878586e+00 +4.9634463087584334e-04 +0.0000000000000000e+00 +9.9999987682099600e-01
-6.9999999999999911e+00 +6.4312376149402022e+00 +0.0000000000000000e+00 -6.9999997041905750e+00 +5.0353803628116849e-04 +0.0000000000000000e+00 +9.9999987322471484e-01
-7.0999999999999908e+00 +6.4311869014660878e+00 +0.0000000000000000e+00 -7.0999996913310763e+00 +5.1073144690387897e-04 +0.0000000000000000e+00 +9.9999986957668596e-01
-7.1999999999999904e+00 +6.4311354686506412e+00 +0.0000000000000000e+00 -7.1999996781041871e+00 +5.1792486294892132e-04 +0.0000000000000000e+00 +9.9999986587690903e-01
-7.2999999999999901e+00 +6.4310833164933143e+00 +0.0000000000000000e+00 -7.2999996645047327e+00 +5.2511828450550974e-04 +0.0000000000000000e+00 +9.9999986212538394e-01
-7.3999999999999897e+00 +6.4310304449935574e+00 +0.0000000000000000e+00 -7.3999996505275387e+00 +5.3231171154413974e-04 +0.0000000000000000e+00 +9.9999985832211069e-01
-7.4999999999999893e+00 +6.4309768541508276e+00 +0.0000000000000000e+00 -7.4999996361674297e+00 +5.3950514391658548e-04 +0.0000000000000000e+00 +9.9999985446708906e-01
-7.5999999999999890e+00 +6.4309225439646047e+00 +0.0000000000000000e+00 -7.5999996214192311e+00 +5.4669858135589753e-04 +0.0000000000000000e+00 +9.9999985056031926e-01
-7.6999999999999886e+00 +6.4308675144344001e+00 +0.0000000000000000e+00 -7.6999996062777685e+00 +5.5389202347639970e-04 +0.0000000000000000e+00 +9.9999984660180130e-01
-7.7999999999999883e+00 +6.4308117655597696e+00 +0.0000000000000000e+00 -7.7999995907378663e+00 +5.6108546977368654e-04 +0.0000000000000000e+00 +9.9999984259153529e-01
-7.8999999999999879e+00 +6.4307552973403261e+00 +0.0000000000000000e+00 -7.8999995747943501e+00 +5.6827891962462056e-04 +0.0000000000000000e+00 +9.9999983852952157e-01
-7.9999999999999876e+00 +6.4306981097757507e+00 +0.0000000000000000e+00 -7.9999995584420454e+00 +5.7547237228732905e-04 +0.0000000000000000e+00 +9.9999983441576046e-01
-8.0999999999999872e+00 +6.4306402028658036e+00 +0.0000000000000000e+00 -8.0999995416757766e+00 +5.8266582691189801e-04 +0.0000000000000000e+00 +9.9999983025025252e-01
-8.1999999999999869e+00 +6.4305815766103311e+00 +0.0000000000000000e+00 -8.1999995244903712e+00 +5.8985928265803747e-04 +0.0000000000000000e+00 +9.9999982603299808e-01
-8.2999999999999865e+00 +6.4305222310092587e+00 +0.0000000000000000e+00 -8.2999995068806527e+00 +5.9705273881275039e-04 +0.0000000000000000e+00 +9.9999982176399749e-01
-8.3999999999999861e+00 +6.4304621660625747e+00 +0.0000000000000000e+00 -8.3999994888414466e+00 +6.0424619480103036e-04 +0.0000000000000000e+00 +9.9999981744325117e-01
-8.4999999999999858e+00 +6.4304013817703192e+00 +0.0000000000000000e+00 -8.4999994703675785e+00 +6.1143965018586226e-04 +0.0000000000000000e+00 +9.9999981307075947e-01
-8.5999999999999854e+00 +6.4303398781325685e+00 +0.0000000000000000e+00 -8.5999994514538738e+00 +6.1863310466822282e-04 +0.0000000000000000e+00 +9.9999980864652249e-01
-8.6999999999999851e+00 +6.4302776551494212e+00 +0.0000000000000000e+00 -8.6999994320951579e+00 +6.2582655808708122e-04 +0.0000000000000000e+00 +9.9999980417054035e-01
-8.7999999999999847e+00 +6.4302147128209874e+00 +0.0000000000000000e+00 -8.7999994122862564e+00 +6.3302001041939981e-04 +0.0000000000000000e+00 +9.9999979964281305e-01
-8.8999999999999844e+00 +6.4301510511473703e+00 +0.0000000000000000e+00 -8.8999993920219946e+00 +6.4021346178013479e-04 +0.0000000000000000e+00 +9.9999979506334058e-01
-8.9999999999999840e+00 +6.4300866701286559e+00 +0.0000000000000000e+00 -8.9999993712971982e+00 +6.4740691242223672e-04 +0.0000000000000000e+00 +9.9999979043212284e-01
-9.0999999999999837e+00 +6.4300215697648975e+00 +0.0000000000000000e+00 -9.0999993501066943e+00 +6.5460036272846529e-04 +0.0000000000000000e+00 +9.9999978574915949e-01
-9.1999999999999833e+00 +6.4299557500561075e+00 +0.0000000000000000e+00 -9.1999993284453065e+00 +6.6179381312133755e-04 +0.0000000000000000e+00 +9.9999978101445031e-01
-9.2999999999999829e+00 +6.4298892110022576e+00 +0.0000000000000000e+00 -9.2999993063078605e+00 +6.6898726397305968e-04 +0.0000000000000000e+00 +9.9999977622799507e-01
-9.3999999999999826e+00 +6.4298219526032865e+00 +0.0000000000000000e+00 -9.3999992836891817e+00 +6.7618071559731347e-04 +0.0000000000000000e+00 +9.9999977138979357e-01
-9.4999999999999822e+00 +6.4297539748591035e+00 +0.0000000000000000e+00 -9.4999992605840955e+00 +6.8337416824922829e-04 +0.0000000000000000e+00 +9.9999976649984557e-01
-9.5999999999999819e+00 +6.4296852777695959e+00 +0.0000000000000000e+00 -9.5999992369874274e+00 +6.9056762212535200e-04 +0.0000000000000000e+00 +9.9999976155815096e-01
-9.6999999999999815e+00 +6.4296158613346330e+00 +0.0000000000000000e+00 -9.6999992128940011e+00 +6.9776107736362102e-04 +0.0000000000000000e+00 +9.9999975656470963e-01
-9.7999999999999812e+00 +6.4295457255540747e+00 +0.0000000000000000e+00 -9.7999991882986439e+00 +7.0495453404333011e-04 +0.0000000000000000e+00 +9.9999975151952136e-01
-9.8999999999999808e+00 +6.4294748704277751e+00 +0.0000000000000000e+00 -9.8999991631961812e+00 +7.1214799218510133e-04 +0.0000000000000000e+00 +9.9999974642258627e-01
-9.9999999999999805e+00 +6.4294032959555896e+00 +0.0000000000000000e+00 -9.9999991375814368e+00 +7.1934145175085197e-04 +0.0000000000000000e+00 +9.9999974127390423e-01
-1.0099999999999980e+01 +6.4293310021373804e+00 +0.0000000000000000e+00 -1.0099999111449238e+01 +7.2653491264634829e-04 +0.0000000000000000e+00 +9.9999973607347536e-01
-1.0199999999999980e+01 +6.4292579889730206e+00 +0.0000000000000000e+00 -1.0199999084794408e+01 +7.3372837474963584e-04 +0.0000000000000000e+00 +9.9999973082129967e-01
-1.0299999999999979e+01 +6.4291842564623947e+00 +0.0000000000000000e+00 -1.0299999057611773e+01 +7.4092183793953098e-04 +0.0000000000000000e+00 +9.9999972551737726e-01
-1.0399999999999979e+01 +6.4291098046054005e+00 +0.0000000000000000e+00 -1.0399999029896158e+01 +7.4811530209828361e-04 +0.0000000000000000e+00 +9.9999972016170813e-01
-1.0499999999999979e+01 +6.4290346334019466e+00 +0.0000000000000000e+00 -1.0499999001642388e+01 +7.5530876711165707e-04 +0.0000000000000000e+00 +9.9999971475429239e-01
-1.0599999999999978e+01 +6.4289587428519530e+00 +0.0000000000000000e+00 -1.0599998972845290e+01 +7.6250223286901040e-04 +0.0000000000000000e+00 +9.9999970929513005e-01
-1.0699999999999978e+01 +6.4288821329553514e+00 +0.0000000000000000e+00 -1.0699998943499688e+01 +7.6969569926338215e-04 +0.0000000000000000e+00 +9.9999970378422132e-01
-1.0799999999999978e+01 +6.4288048037120831e+00 +0.0000000000000000e+00 -1.0799998913600408e+01 +7.7688916619157646e-04 +0.0000000000000000e+00 +9.9999969822156609e-01
-1.0899999999999977e+01 +6.4287267551220992e+00 +0.0000000000000000e+00 -1.0899998883142276e+01 +7.8408263355425102e-04 +0.0000000000000000e+00 +9.9999969260716448e-01
-1.0999999999999977e+01 +6.4286479871853608e+00 +0.0000000000000000e+00 -1.0999998852120116e+01 +7.9127610125600720e-04 +0.0000000000000000e+00 +9.9999968694101660e-01
-1.1099999999999977e+01 +6.4285684999018393e+00 +0.0000000000000000e+00 -1.1099998820528755e+01 +7.9846956920676039e-04 +0.0000000000000000e+00 +9.9999968122312255e-01
-1.1199999999999976e+01 +6.4284882932715135e+00 +0.0000000000000000e+00 -1.1199998788363017e+01 +8.0566303733587395e-04 +0.0000000000000000e+00 +9.9999967545348234e-01
-1.1299999999999976e+01 +6.4284073672943673e+00 +0.0000000000000000e+00 -1.1299998755617727e+01 +8.1285650560618630e-04 +0.0000000000000000e+00 +9.9999966963209597e-01
-1.1399999999999975e+01 +6.4283257219703875e+00 +0.0000000000000000e+00 -1.1399998722287711e+01 +8.2004997401518979e-04 +0.0000000000000000e+00 +9.9999966375896343e-01
-1.1499999999999975e+01 +6.4282433572995590e+00 +0.0000000000000000e+00 -1.1499998688367794e+01 +8.2724344259492552e-04 +0.0000000000000000e+00 +9.9999965783408473e-01
-1.1599999999999975e+01 +6.4281602732818612e+00 +0.0000000000000000e+00 -1.1599998653852802e+01 +8.3443691141187536e-04 +0.0000000000000000e+00 +9.9999965185745976e-01
-1.1699999999999974e+01 +6.4280764699172659e+00 +0.0000000000000000e+00 -1.1699998618737562e+01 +8.4163038056685202e-04 +0.0000000000000000e+00 +9.9999964582908851e-01
