# field on trajectory
# s[mm] rx[mm] ry[mm] rz[mm] bx[T] by[T] bz[T]
0.0000000000000000e+00 +6.4329999999999998e+00 +0.0000000000000000e+00 +0.0000000000000000e+00 +4.7695846170062682e-04 -9.9333629451553940e-01 -3.7934839188990886e-03
1.0000000000000001e-01 +6.4329996393962601e+00 +0.0000000000000000e+00 +9.9999999999133102e-02 +4.7697985688908035e-04 -9.9333655641694996e-01 -3.7937133227991604e-03
2.0000000000000001e-01 +6.4329985575848969e+00 +0.0000000000000000e+00 +1.9999999999306481e-01 +4.7699944539818397e-04 -9.9333695209920558e-01 -3.7939216265883927e-03
3.0000000000000004e-01 +6.4329967545656235e+00 +0.0000000000000000e+00 +2.9999999997659371e-01 +4.7701819398896184e-04 -9.9333746223507413e-01 -3.7941099074695274e-03
4.0000000000000002e-01 +6.4329942303380721e+00 +0.0000000000000000e+00 +3.9999999994451840e-01 +4.7703706942335924e-04 -9.9333806749736908e-01 -3.7942792426562551e-03
5.0000000000000000e-01 +6.4329909849018039e+00 +0.0000000000000000e+00 +4.9999999989163740e-01 +4.7705703847709583e-04 -9.9333874855913395e-01 -3.7944307093756482e-03
5.9999999999999998e-01 +6.4329870182563251e+00 +0.0000000000000000e+00 +5.9999999981274932e-01 +4.7707906795251687e-04 -9.9333948609382716e-01 -3.7945653848705809e-03
6.9999999999999996e-01 +6.4329823304011029e+00 +0.0000000000000000e+00 +6.9999999970265270e-01 +4.7710412469144793e-04 -9.9334026077551107e-01 -3.7946843464021791e-03
7.9999999999999993e-01 +6.4329769213355750e+00 +0.0000000000000000e+00 +7.9999999955614598e-01 +4.7713317558804516e-04 -9.9334105327903288e-01 -3.7947886712522303e-03
8.9999999999999991e-01 +6.4329707910591685e+00 +0.0000000000000000e+00 +8.9999999936802788e-01 +4.7716718760164913e-04 -9.9334184428021421e-01 -3.7948794367256324e-03
9.9999999999999989e-01 +6.4329639395713096e+00 +0.0000000000000000e+00 +9.9999999913309678e-01 +4.7720712776963428e-04 -9.9334261445603578e-01 -3.7949577201528127e-03
1.0999999999999999e+00 +6.4329563668714416e+00 +0.0000000000000000e+00 +1.0999999988461511e+00 +4.7725374074013646e-04 -9.9334334929763801e-01 -3.7950241437823711e-03
1.2000000000000000e+00 +6.4329480729590305e+00 +0.0000000000000000e+00 +1.1999999985019894e+00 +4.7730688130908147e-04 -9.9334405354852795e-01 -3.7950775094399828e-03
1.3000000000000000e+00 +6.4329390578335639e+00 +0.0000000000000000e+00 +1.2999999980954102e+00 +4.7736618180103886e-04 -9.9334473676544166e-01 -3.7951161638314613e-03
1.4000000000000001e+00 +6.4329293214945471e+00 +0.0000000000000000e+00 +1.3999999976212121e+00 +4.7743127453140537e-04 -9.9334540850534236e-01 -3.7951384536427527e-03
1.5000000000000002e+00 +6.4329188639414916e+00 +0.0000000000000000e+00 +1.4999999970741933e+00 +4.7750179179615563e-04 -9.9334607832532751e-01 -3.7951427255331831e-03
1.6000000000000003e+00 +6.4329076851739107e+00 +0.0000000000000000e+00 +1.5999999964491523e+00 +4.7757736586159067e-04 -9.9334675578253318e-01 -3.7951273261287019e-03
1.7000000000000004e+00 +6.4328957851913131e+00 +0.0000000000000000e+00 +1.6999999957408876e+00 +4.7765762895408769e-04 -9.9334745043404316e-01 -3.7950906020151306e-03
1.8000000000000005e+00 +6.4328831639931945e+00 +0.0000000000000000e+00 +1.7999999949441976e+00 +4.7774221324985004e-04 -9.9334817183679402e-01 -3.7950308997314066e-03
1.9000000000000006e+00 +6.4328698215790308e+00 +0.0000000000000000e+00 +1.8999999940538808e+00 +4.7783075086465712e-04 -9.9334892954748311e-01 -3.7949465657628381e-03
2.0000000000000004e+00 +6.4328557579482721e+00 +0.0000000000000000e+00 +1.9999999930647354e+00 +4.7792287384361453e-04 -9.9334973312247388e-01 -3.7948359465343417e-03
2.1000000000000005e+00 +6.4328409731003360e+00 +0.0000000000000000e+00 +2.0999999919715600e+00 +4.7801811360181689e-04 -9.9335058821855171e-01 -3.7946979295587621e-03
2.2000000000000006e+00 +6.4328254670346023e+00 +0.0000000000000000e+00 +2.1999999907691530e+00 +4.7811559928243204e-04 -9.9335148489510161e-01 -3.7945335669218572e-03
2.3000000000000007e+00 +6.4328092397504220e+00 +0.0000000000000000e+00 +2.2999999894523127e+00 +4.7821435942366544e-04 -9.9335240931092117e-01 -3.7943444518599065e-03
2.4000000000000008e+00 +6.4327922912471251e+00 +0.0000000000000000e+00 +2.3999999880158369e+00 +4.7831342250676131e-04 -9.9335334762311833e-01 -3.7941321776128563e-03
2.5000000000000009e+00 +6.4327746215240325e+00 +0.0000000000000000e+00 +2.4999999864545246e+00 +4.7841181695122231e-04 -9.9335428598691722e-01 -3.7938983374266621e-03
2.6000000000000010e+00 +6.4327562305804644e+00 +0.0000000000000000e+00 +2.5999999847631736e+00 +4.7850857111003453e-04 -9.9335521055546983e-01 -3.7936445245556507e-03
2.7000000000000011e+00 +6.4327371184157514e+00 +0.0000000000000000e+00 +2.6999999829365828e+00 +4.7860271326488808e-04 -9.9335610747966019e-01 -3.7933723322648551e-03
2.8000000000000012e+00 +6.4327172850292440e+00 +0.0000000000000000e+00 +2.7999999809695502e+00 +4.7869327162140081e-04 -9.9335696290791542e-01 -3.7930833538323723e-03
2.9000000000000012e+00 +6.4326967304203233e+00 +0.0000000000000000e+00 +2.8999999788568736e+00 +4.7877927430434273e-04 -9.9335776298601319e-01 -3.7927791825517082e-03
3.0000000000000013e+00 +6.4326754545884102e+00 +0.0000000000000000e+00 +2.9999999765933518e+00 +4.7885974935285808e-04 -9.9335849385689090e-01 -3.7924614117341238e-03
3.1000000000000014e+00 +6.4326534575329761e+00 +0.0000000000000000e+00 +3.0999999741737829e+00 +4.7893399808485686e-04 -9.9335914813660298e-01 -3.7921314914010741e-03
3.2000000000000015e+00 +6.4326307392535451e+00 +0.0000000000000000e+00 +3.1999999715929652e+00 +4.7900241525456995e-04 -9.9335974434450602e-01 -3.7917902983584883e-03
3.3000000000000016e+00 +6.4326072997496846e+00 +0.0000000000000000e+00 +3.2999999688456967e+00 +4.7906566904030464e-04 -9.9336030747813975e-01 -3.7914385661328670e-03
3.4000000000000017e+00 +6.4325831390209851e+00 +0.0000000000000000e+00 +3.3999999659267757e+00 +4.7912442769586531e-04 -9.9336086253778577e-01 -3.7910770282847217e-03
3.5000000000000018e+00 +6.4325582570670443e+00 +0.0000000000000000e+00 +3.4999999628310006e+00 +4.7917935955864901e-04 -9.9336143452672587e-01 -3.7907064184114058e-03
3.6000000000000019e+00 +6.4325326538874457e+00 +0.0000000000000000e+00 +3.5999999595531698e+00 +4.7923113305774098e-04 -9.9336204845150455e-01 -3.7903274701499585e-03
3.7000000000000020e+00 +6.4325063294817433e+00 +0.0000000000000000e+00 +3.6999999560880812e+00 +4.7928041672201172e-04 -9.9336272932219227e-01 -3.7899409171799404e-03
3.8000000000000020e+00 +6.4324792838494425e+00 +0.0000000000000000e+00 +3.7999999524305332e+00 +4.7932787918821023e-04 -9.9336350215264324e-01 -3.7895474932262657e-03
3.9000000000000021e+00 +6.4324515169899827e+00 +0.0000000000000000e+00 +3.8999999485753238e+00 +4.7937418920906229e-04 -9.9336439196076032e-01 -3.7891479320620366e-03
4.0000000000000018e+00 +6.4324230289027176e+00 +0.0000000000000000e+00 +3.9999999445172514e+00 +4.7942001566136417e-04 -9.9336542376875547e-01 -3.7887429675113864e-03
4.1000000000000014e+00 +6.4323938195868982e+00 +0.0000000000000000e+00 +4.0999999402511138e+00 +4.7946606110952321e-04 -9.9336661348232180e-01 -3.7883331861352657e-03
4.2000000000000011e+00 +6.4323638890416639e+00 +0.0000000000000000e+00 +4.1999999357717090e+00 +4.7951316244085096e-04 -9.9336794052508703e-01 -3.7879185852667746e-03
4.3000000000000007e+00 +6.4323332372660547e+00 +0.0000000000000000e+00 +4.2999999310738355e+00 +4.7956219013512889e-04 -9.9336937519760116e-01 -3.7874990149373649e-03
4.4000000000000004e+00 +6.4323018642590322e+00 +0.0000000000000000e+00 +4.3999999261522911e+00 +4.7961401470054970e-04 -9.9337088779766458e-01 -3.7870743251907121e-03
4.5000000000000000e+00 +6.4322697700195013e+00 +0.0000000000000000e+00 +4.4999999210018728e+00 +4.7966950667469531e-04 -9.9337244862013974e-01 -3.7866443660827614e-03
4.5999999999999996e+00 +6.4322369545463323e+00 +0.0000000000000000e+00 +4.5999999156173796e+00 +4.7972953662551879e-04 -9.9337402795676355e-01 -3.7862089876817898e-03
4.6999999999999993e+00 +6.4322034178383820e+00 +0.0000000000000000e+00 +4.6999999099936085e+00 +4.7979497515232176e-04 -9.9337559609595805e-01 -3.7857680400684587e-03
4.7999999999999989e+00 +6.4321691598945163e+00 +0.0000000000000000e+00 +4.7999999041253583e+00 +4.7986669288673515e-04 -9.9337712332264372e-01 -3.7853213733358660e-03
4.8999999999999986e+00 +6.4321341807136285e+00 +0.0000000000000000e+00 +4.8999998980074260e+00 +4.7994556049369617e-04 -9.9337857991805023e-01 -3.7848688375896099e-03
4.9999999999999982e+00 +6.4320984802946661e+00 +0.0000000000000000e+00 +4.9999998916346096e+00 +4.8003244867242807e-04 -9.9337993615952891e-01 -3.7844102829478390e-03
5.0999999999999979e+00 +6.4320620586366468e+00 +0.0000000000000000e+00 +5.0999998850017070e+00 +4.8012797947514450e-04 -9.9338117105174917e-01 -3.7839457702678993e-03
5.1999999999999975e+00 +6.4320249157386753e+00 +0.0000000000000000e+00 +5.1999998781035153e+00 +4.8023178027740060e-04 -9.9338229852266446e-01 -3.7834762032759213e-03
5.2999999999999972e+00 +6.4319870515999336e+00 +0.0000000000000000e+00 +5.2999998709348333e+00 +4.8034322986275648e-04 -9.9338334123254601e-01 -3.7830026962895696e-03
5.3999999999999968e+00 +6.4319484662196649e+00 +0.0000000000000000e+00 +5.3999998634904580e+00 +4.8046170711517794e-04 -9.9338432184308567e-01 -3.7825263634695791e-03
5.4999999999999964e+00 +6.4319091595971578e+00 +0.0000000000000000e+00 +5.4999998557651884e+00 +4.8058659102283031e-04 -9.9338526301748198e-01 -3.7820483188120970e-03
5.5999999999999961e+00 +6.4318691317317302e+00 +0.0000000000000000e+00 +5.5999998477538213e+00 +4.8071726068187162e-04 -9.9338618742052520e-01 -3.7815696761410232e-03
5.6999999999999957e+00 +6.4318283826227107e+00 +0.0000000000000000e+00 +5.6999998394511548e+00 +4.8085309530024372e-04 -9.9338711771868604e-01 -3.7810915491003671e-03
5.7999999999999954e+00 +6.4317869122694251e+00 +0.0000000000000000e+00 +5.7999998308519869e+00 +4.8099347420146237e-04 -9.9338807658019757e-01 -3.7806150511465885e-03
5.8999999999999950e+00 +6.4317447206711780e+00 +0.0000000000000000e+00 +5.8999998219511145e+00 +4.8113777682840518e-04 -9.9338908667514392e-01 -3.7801412955409410e-03
5.9999999999999947e+00 +6.4317018078272374e+00 +0.0000000000000000e+00 +5.9999998127433365e+00 +4.8128538274709901e-04 -9.9339017067554536e-01 -3.7796713953418288e-03
6.0999999999999943e+00 +6.4316581737368166e+00 +0.0000000000000000e+00 +6.0999998032234499e+00 +4.8143551189816096e-04 -9.9339134300405973e-01 -3.7792061876375056e-03
6.1999999999999940e+00 +6.4316138183990690e+00 +0.0000000000000000e+00 +6.1999997933862527e+00 +4.8158674514180649e-04 -9.9339258507967176e-01 -3.7787454063858213e-03
6.2999999999999936e+00 +6.4315687418130958e+00 +0.0000000000000000e+00 +6.2999997832265429e+00 +4.8173750316283641e-04 -9.9339387007190483e-01 -3.7782885099277908e-03
6.3999999999999932e+00 +6.4315229439779680e+00 +0.0000000000000000e+00 +6.3999997727391174e+00 +4.8188620615612142e-04 -9.9339517115235931e-01 -3.7778349567911549e-03
6.4999999999999929e+00 +6.4314764248927458e+00 +0.0000000000000000e+00 +6.4999997619187733e+00 +4.8203127380629150e-04 -9.9339646149479333e-01 -3.7773842056988741e-03
6.5999999999999925e+00 +6.4314291845564959e+00 +0.0000000000000000e+00 +6.5999997507603094e+00 +4.8217112526742451e-04 -9.9339771427520063e-01 -3.7769357155776240e-03
6.6999999999999922e+00 +6.4313812229683123e+00 +0.0000000000000000e+00 +6.6999997392585220e+00 +4.8230417914274423e-04 -9.9339890267189124e-01 -3.7764889455662899e-03
6.7999999999999918e+00 +6.4313325401273369e+00 +0.0000000000000000e+00 +6.7999997274082098e+00 +4.8242885346432121e-04 -9.9339999986557093e-01 -3.7760433550244540e-03
6.8999999999999915e+00 +6.4312831360327776e+00 +0.0000000000000000e+00 +6.8999997152041699e+00 +4.8254356567277749e-04 -9.9340097903942126e-01 -3.7755984035408897e-03
6.9999999999999911e+00 +6.4312330106839273e+00 +0.0000000000000000e+00 +6.9999997026411993e+00 +4.8264673259700095e-04 -9.9340181337918065e-01 -3.7751535509420583e-03
7.0999999999999908e+00 +6.4311821640801838e+00 +0.0000000000000000e+00 +7.0999996897140960e+00 +4.8273743307229841e-04 -9.9340248557157551e-01 -3.7747083981432045e-03
7.1999999999999904e+00 +6.4311305962210605e+00 +0.0000000000000000e+00 +7.1999996764176579e+00 +4.8281739619162781e-04 -9.9340301629699646e-01 -3.7742631095864869e-03
7.2999999999999901e+00 +6.4310783071061728e+00 +0.0000000000000000e+00 +7.2999996627466830e+00 +4.8288901395578376e-04 -9.9340343572928991e-01 -3.7738179905335346e-03
7.3999999999999897e+00 +6.4310252967352168e+00 +0.0000000000000000e+00 +7.3999996486959683e+00 +4.8295467871903628e-04 -9.9340377403633195e-01 -3.7733733461927351e-03
7.4999999999999893e+00 +6.4309715651079484e+00 +0.0000000000000000e+00 +7.4999996342603117e+00 +4.8301678320363005e-04 -9.9340406137981141e-01 -3.7729294817169267e-03
7.5999999999999890e+00 +6.4309171122241597e+00 +0.0000000000000000e+00 +7.5999996194345112e+00 +4.8307772051428072e-04 -9.9340432791501210e-01 -3.7724867022010909e-03
7.6999999999999886e+00 +6.4308619380836580e+00 +0.0000000000000000e+00 +7.6999996042133647e+00 +4.8313988415266606e-04 -9.9340460379059647e-01 -3.7720453126800480e-03
7.7999999999999883e+00 +6.4308060426862443e+00 +0.0000000000000000e+00 +7.7999995885916693e+00 +4.8320566803191679e-04 -9.9340491914838858e-01 -3.7716056181261552e-03
7.8999999999999879e+00 +6.4307494260316904e+00 +0.0000000000000000e+00 +7.8999995725642238e+00 +4.8327746649109911e-04 -9.9340530412315731e-01 -3.7711679234470070e-03
7.9999999999999876e+00 +6.4306920881197183e+00 +0.0000000000000000e+00 +7.9999995561258253e+00 +4.8335767430969723e-04 -9.9340578884239950e-01 -3.7707325334831367e-03
8.0999999999999872e+00 +6.4306340289499770e+00 +0.0000000000000000e+00 +8.0999995392712716e+00 +4.8344809699011032e-04 -9.9340639682150078e-01 -3.7702998569759789e-03
8.1999999999999869e+00 +6.4305752485220289e+00 +0.0000000000000000e+00 +8.1999995219953590e+00 +4.8354818154260781e-04 -9.9340712515490681e-01 -3.7698707185047494e-03
8.2999999999999865e+00 +6.4305157468353489e+00 +0.0000000000000000e+00 +8.2999995042928862e+00 +4.8365678570756602e-04 -9.9340796433995560e-01 -3.7694460466114626e-03
8.3999999999999861e+00 +6.4304555238893313e+00 +0.0000000000000000e+00 +8.3999994861586522e+00 +4.8377276771691607e-04 -9.9340890488334743e-01 -3.7690267698332657e-03
8.4999999999999858e+00 +6.4303945796832966e+00 +0.0000000000000000e+00 +8.4999994675874522e+00 +4.8389498630843641e-04 -9.9340993730143923e-01 -3.7686138167021903e-03
8.5999999999999854e+00 +6.4303329142164998e+00 +0.0000000000000000e+00 +8.5999994485740849e+00 +4.8402230074004503e-04 -9.9341105212054803e-01 -3.7682081157449049e-03
8.6999999999999851e+00 +6.4302705274881342e+00 +0.0000000000000000e+00 +8.6999994291133476e+00 +4.8415357080408724e-04 -9.9341223987724314e-01 -3.7678105954824580e-03
8.7999999999999847e+00 +6.4302074194973420e+00 +0.0000000000000000e+00 +8.7999994092000371e+00 +4.8428765684162435e-04 -9.9341349111865007e-01 -3.7674221844300310e-03
8.8999999999999844e+00 +6.4301435902432180e+00 +0.0000000000000000e+00 +8.8999993888289506e+00 +4.8442341975671695e-04 -9.9341479640274433e-01 -3.7670438110966827e-03
8.9999999999999840e+00 +6.4300790397248191e+00 +0.0000000000000000e+00 +8.9999993679948851e+00 +4.8455972103070798e-04 -9.9341614629865282e-01 -3.7666764039850894e-03
9.0999999999999837e+00 +6.4300137679411682e+00 +0.0000000000000000e+00 +9.0999993466926377e+00 +4.8469557464699291e-04 -9.9341753074115902e-01 -3.7663205605572942e-03
9.1999999999999833e+00 +6.4299477748912652e+00 +0.0000000000000000e+00 +9.1999993249170053e+00 +4.8483060232774937e-04 -9.9341893708592899e-01 -3.7659755541402150e-03
9.2999999999999829e+00 +6.4298810605740924e+00 +0.0000000000000000e+00 +9.2999993026627852e+00 +4.8496457688087689e-04 -9.9342035203354084e-01 -3.7656403270986270e-03
9.3999999999999826e+00 +6.4298136249886273e+00 +0.0000000000000000e+00 +9.3999992799247742e+00 +4.8509727012745782e-04 -9.9342176227309342e-01 -3.7653138218922549e-03
9.4999999999999822e+00 +6.4297454681338504e+00 +0.0000000000000000e+00 +9.4999992566977713e+00 +4.8522845287348235e-04 -9.9342315448187857e-01 -3.7649949810782336e-03
9.5999999999999819e+00 +6.4296765900087554e+00 +0.0000000000000000e+00 +9.5999992329765718e+00 +4.8535789488158009e-04 -9.9342451532505438e-01 -3.7646827473135640e-03
9.6999999999999815e+00 +6.4296069906123581e+00 +0.0000000000000000e+00 +9.6999992087559725e+00 +4.8548536484275634e-04 -9.9342583145531882e-01 -3.7643760633575838e-03
9.7999999999999812e+00 +6.4295366699437082e+00 +0.0000000000000000e+00 +9.7999991840307707e+00 +4.8561063034813277e-04 -9.9342708951258163e-01 -3.7640738720744228e-03
9.8999999999999808e+00 +6.4294656280018962e+00 +0.0000000000000000e+00 +9.8999991587957634e+00 +4.8573345786069485e-04 -9.9342827612363904e-01 -3.7637751164354698e-03
9.9999999999999805e+00 +6.4293938647860651e+00 +0.0000000000000000e+00 +9.9999991330457476e+00 +4.8585361268704347e-04 -9.9342937790184727e-01 -3.7634787395218324e-03
1.0099999999999980e+01 +6.4293213802954190e+00 +0.0000000000000000e+00 +1.0099999106775520e+01 +4.8597081364243306e-04 -9.9343038541215556e-01 -3.7631839396716567e-03
1.0199999999999980e+01 +6.4292481745292305e+00 +0.0000000000000000e+00 +1.0199999079979879e+01 +4.8608459769309658e-04 -9.9343130507420319e-01 -3.7628909358463076e-03
1.0299999999999979e+01 +6.4291742474868343e+00 +0.0000000000000000e+00 +1.0299999052653620e+01 +4.8619445691229252e-04 -9.9343214727805385e-01 -3.7626002020112377e-03
1.0399999999999979e+01 +6.4290995991676221e+00 +0.0000000000000000e+00 +1.0399999024791541e+01 +4.8629988395168348e-04 -9.9343292242051351e-01 -3.7623122119491061e-03
1.0499999999999979e+01 +6.4290242295710351e+00 +0.0000000000000000e+00 +1.0499998996388440e+01 +4.8640037205696792e-04 -9.9343364090531616e-01 -3.7620274392550323e-03
1.0599999999999978e+01 +6.4289481386965548e+00 +0.0000000000000000e+00 +1.0599998967439113e+01 +4.8649541508350710e-04 -9.9343431314330399e-01 -3.7617463573318389e-03
1.0699999999999978e+01 +6.4288713265436961e+00 +0.0000000000000000e+00 +1.0699998937938357e+01 +4.8658450751195133e-04 -9.9343494955261069e-01 -3.7614694393852946e-03
1.0799999999999978e+01 +6.4287937931119998e+00 +0.0000000000000000e+00 +1.0799998907880971e+01 +4.8666714446386278e-04 -9.9343556055884408e-01 -3.7611971584193692e-03
1.0899999999999977e+01 +6.4287155384010264e+00 +0.0000000000000000e+00 +1.0899998877261751e+01 +4.8674282171733705e-04 -9.9343615659526729e-01 -3.7609299872314694e-03
1.0999999999999977e+01 +6.4286365624103468e+00 +0.0000000000000000e+00 +1.0999998846075494e+01 +4.8681103572262096e-04 -9.9343674810298177e-01 -3.7606683984076892e-03
1.1099999999999977e+01 +6.4285568651395346e+00 +0.0000000000000000e+00 +1.1099998814316997e+01 +4.8687154613364996e-04 -9.9343734433422526e-01 -3.7604127237389185e-03
1.1199999999999976e+01 +6.4284764465881610e+00 +0.0000000000000000e+00 +1.1199998781981058e+01 +4.8692516313860173e-04 -9.9343794976069788e-01 -3.7601627325509158e-03
1.1299999999999976e+01 +6.4283953067557906e+00 +0.0000000000000000e+00 +1.1299998749062475e+01 +4.8697295943038135e-04 -9.9343856766261984e-01 -3.7599180536099031e-03
1.1399999999999975e+01 +6.4283134456419786e+00 +0.0000000000000000e+00 +1.1399998715556043e+01 +4.8701600760369762e-04 -9.9343920132555308e-01 -3.7596783157354996e-03
1.1499999999999975e+01 +6.4282308632462684e+00 +0.0000000000000000e+00 +1.1499998681456560e+01 +4.8705538015263465e-04 -9.9343985404051505e-01 -3.7594431478022018e-03
1.1599999999999975e+01 +6.4281475595681909e+00 +0.0000000000000000e+00 +1.1599998646758824e+01 +4.8709214946822464e-04 -9.9344052910409120e-01 -3.7592121787408581e-03
1.1699999999999974e+01 +6.4280635346072605e+00 +0.0000000000000000e+00 +1.1699998611457630e+01 +4.8712738783602069e-04 -9.9344122981854854e-01 -3.7589850375401527e-03
1.1799999999999974e+01 +6.4279787883629718e+00 +0.0000000000000000e+00 +1.1799998575547777e+01 +4.8716216743367057e-04 -9.9344195949194813e-01 -3.7587613532480803e-03
