# trajectory
# s[mm] rx[mm] ry[mm] rz[mm] px[rad] py[rad] pz[rad]
0.0000000000000000e+00 +6.4329999999999998e+00 +0.0000000000000000e+00 +0.0000000000000000e+00 +0.0000000000000000e+00 +0.0000000000000000e+00 +1.0000000000000000e+00
-1.0000000000000001e-01 +6.4329996400657219e+00 +0.0000000000000000e+00 -9.9999999999136308e-02 +7.1986855305447176e-06 +0.0000000000000000e+00 +9.9999999997408950e-01
-2.0000000000000001e-01 +6.4329985602628961e+00 +0.0000000000000000e+00 -1.9999999999309054e-01 +1.4397370987867811e-05 +0.0000000000000000e+00 +9.9999999989635791e-01
-3.0000000000000004e-01 +6.4329967605915206e+00 +0.0000000000000000e+00 -2.9999999997668053e-01 +2.1596056551167955e-05 +0.0000000000000000e+00 +9.9999999976680520e-01
-4.0000000000000002e-01 +6.4329942410515786e+00 +0.0000000000000000e+00 -3.9999999994472418e-01 +2.8794742339709989e-05 +0.0000000000000000e+00 +9.9999999958543140e-01
-5.0000000000000000e-01 +6.4329910016430434e+00 +0.0000000000000000e+00 -4.9999999989203942e-01 +3.5993428412826115e-05 +0.0000000000000000e+00 +9.9999999935223660e-01
-5.9999999999999998e-01 +6.4329870423658866e+00 +0.0000000000000000e+00 -5.9999999981344410e-01 +4.3192114769916426e-05 +0.0000000000000000e+00 +9.9999999906722070e-01
-6.9999999999999996e-01 +6.4329823632200824e+00 +0.0000000000000000e+00 -6.9999999970375615e-01 +5.0390801350448750e-05 +0.0000000000000000e+00 +9.9999999873038370e-01
-7.9999999999999993e-01 +6.4329769642056132e+00 +0.0000000000000000e+00 -7.9999999955779344e-01 +5.7589488033957804e-05 +0.0000000000000000e+00 +9.9999999834172559e-01
-8.9999999999999991e-01 +6.4329708453224779e+00 +0.0000000000000000e+00 -8.9999999937037389e-01 +6.4788174640043695e-05 +0.0000000000000000e+00 +9.9999999790124638e-01
-9.9999999999999989e-01 +6.4329640065706952e+00 +0.0000000000000000e+00 -9.9999999913631532e-01 +7.1986860928369690e-05 +0.0000000000000000e+00 +9.9999999740894607e-01
-1.0999999999999999e+00 +6.4329564479503123e+00 +0.0000000000000000e+00 -1.0999999988504356e+00 +7.9185546611659251e-05 +0.0000000000000000e+00 +9.9999999686482477e-01
-1.2000000000000000e+00 +6.4329481694614001e+00 +0.0000000000000000e+00 -1.1999999985075529e+00 +8.6384231498691370e-05 +0.0000000000000000e+00 +9.9999999626888247e-01
-1.3000000000000000e+00 +6.4329391711040378e+00 +0.0000000000000000e+00 -1.2999999981024848e+00 +9.3582915637296262e-05 +0.0000000000000000e+00 +9.9999999562111919e-01
-1.4000000000000001e+00 +6.4329294528782874e+00 +0.0000000000000000e+00 -1.3999999976300492e+00 +1.0078159932735238e-04 +0.0000000000000000e+00 +9.9999999492153480e-01
-1.5000000000000002e+00 +6.4329190147841686e+00 +0.0000000000000000e+00 -1.4999999970850644e+00 +1.0798028312078321e-04 +0.0000000000000000e+00 +9.9999999417012941e-01
-1.6000000000000003e+00 +6.4329078568216334e+00 +0.0000000000000000e+00 -1.5999999964623479e+00 +1.1517896782155390e-04 +0.0000000000000000e+00 +9.9999999336690282e-01
-1.7000000000000004e+00 +6.4328959789905396e+00 +0.0000000000000000e+00 -1.6999999957567176e+00 +1.2237765448566741e-04 +0.0000000000000000e+00 +9.9999999251185501e-01
-1.8000000000000005e+00 +6.4328833812906279e+00 +0.0000000000000000e+00 -1.7999999949629915e+00 +1.2957634442116052e-04 +0.0000000000000000e+00 +9.9999999160498565e-01
-1.9000000000000006e+00 +6.4328700637214951e+00 +0.0000000000000000e+00 -1.8999999940759873e+00 +1.3677503918809941e-04 +0.0000000000000000e+00 +9.9999999064629452e-01
-2.0000000000000004e+00 +6.4328560262825691e+00 +0.0000000000000000e+00 -1.9999999930905230e+00 +1.4397374059857502e-04 +0.0000000000000000e+00 +9.9999998963578118e-01
-2.1000000000000005e+00 +6.4328412689730854e+00 +0.0000000000000000e+00 -2.0999999920014161e+00 +1.5117245068733010e-04 +0.0000000000000000e+00 +9.9999998857344519e-01
-2.2000000000000006e+00 +6.4328257917920766e+00 +0.0000000000000000e+00 -2.1999999908034846e+00 +1.5837117138870830e-04 +0.0000000000000000e+00 +9.9999998745928609e-01
-2.3000000000000007e+00 +6.4328095947384023e+00 +0.0000000000000000e+00 -2.2999999894915462e+00 +1.6556990421361003e-04 +0.0000000000000000e+00 +9.9999998629330344e-01
-2.4000000000000008e+00 +6.4327926778107933e+00 +0.0000000000000000e+00 -2.3999999880604181e+00 +1.7276865022013247e-04 +0.0000000000000000e+00 +9.9999998507549681e-01
-2.5000000000000009e+00 +6.4327750410078979e+00 +0.0000000000000000e+00 -2.4999999865049181e+00 +1.7996741001357876e-04 +0.0000000000000000e+00 +9.9999998380586574e-01
-2.6000000000000010e+00 +6.4327566843283250e+00 +0.0000000000000000e+00 -2.5999999848198638e+00 +1.8716618374646854e-04 +0.0000000000000000e+00 +9.9999998248440991e-01
-2.7000000000000011e+00 +6.4327376077706928e+00 +0.0000000000000000e+00 -2.6999999830000725e+00 +1.9436497111854944e-04 +0.0000000000000000e+00 +9.9999998111112909e-01
-2.8000000000000012e+00 +6.4327178113336707e+00 +0.0000000000000000e+00 -2.7999999810403620e+00 +2.0156377137680990e-04 +0.0000000000000000e+00 +9.9999997968602305e-01
-2.9000000000000012e+00 +6.4326972950160268e+00 +0.0000000000000000e+00 -2.8999999789355497e+00 +2.0876258331549316e-04 +0.0000000000000000e+00 +9.9999997820909192e-01
-3.0000000000000013e+00 +6.4326760588166723e+00 +0.0000000000000000e+00 -2.9999999766804528e+00 +2.1596140527611229e-04 +0.0000000000000000e+00 +9.9999997668033569e-01
-3.1000000000000014e+00 +6.4326541027347064e+00 +0.0000000000000000e+00 -3.0999999742698892e+00 +2.2316023518432327e-04 +0.0000000000000000e+00 +9.9999997509975469e-01
-3.2000000000000015e+00 +6.4326314267694409e+00 +0.0000000000000000e+00 -3.1999999716986762e+00 +2.3035907095536354e-04 +0.0000000000000000e+00 +9.9999997346734915e-01
-3.3000000000000016e+00 +6.4326080309203775e+00 +0.0000000000000000e+00 -3.2999999689616315e+00 +2.3755791089947418e-04 +0.0000000000000000e+00 +9.9999997178311939e-01
-3.4000000000000017e+00 +6.4325839151871644e+00 +0.0000000000000000e+00 -3.3999999660535725e+00 +2.4475675375874352e-04 +0.0000000000000000e+00 +9.9999997004706564e-01
-3.5000000000000018e+00 +6.4325590795695566e+00 +0.0000000000000000e+00 -3.4999999629693170e+00 +2.5195559870709215e-04 +0.0000000000000000e+00 +9.9999996825918802e-01
-3.6000000000000019e+00 +6.4325335240673676e+00 +0.0000000000000000e+00 -3.5999999597036827e+00 +2.5915444535025650e-04 +0.0000000000000000e+00 +9.9999996641948652e-01
-3.7000000000000020e+00 +6.4325072486804293e+00 +0.0000000000000000e+00 -3.6999999562514869e+00 +2.6635329372577134e-04 +0.0000000000000000e+00 +9.9999996452796114e-01
-3.8000000000000020e+00 +6.4324802534085492e+00 +0.0000000000000000e+00 -3.7999999526075476e+00 +2.7355214430295071e-04 +0.0000000000000000e+00 +9.9999996258461177e-01
-3.9000000000000021e+00 +6.4324525382514661e+00 +0.0000000000000000e+00 -3.8999999487666819e+00 +2.8075099798286748e-04 +0.0000000000000000e+00 +9.9999996058943807e-01
-4.0000000000000018e+00 +6.4324241032088061e+00 +0.0000000000000000e+00 -3.9999999447237076e+00 +2.8794985609833200e-04 +0.0000000000000000e+00 +9.9999995854243962e-01
-4.1000000000000014e+00 +6.4323949482800415e+00 +0.0000000000000000e+00 -4.0999999404734426e+00 +2.9514872038042964e-04 +0.0000000000000000e+00 +9.9999995644361572e-01
-4.2000000000000011e+00 +6.4323650734644655e+00 +0.0000000000000000e+00 -4.1999999360107036e+00 +3.0234759259066649e-04 +0.0000000000000000e+00 +9.9999995429296584e-01
-4.3000000000000007e+00 +6.4323344787612111e+00 +0.0000000000000000e+00 -4.2999999313303086e+00 +3.0954647415313229e-04 +0.0000000000000000e+00 +9.9999995209048931e-01
-4.4000000000000004e+00 +6.4323031641692872e+00 +0.0000000000000000e+00 -4.3999999264270739e+00 +3.1674536612106863e-04 +0.0000000000000000e+00 +9.9999994983618556e-01
-4.5000000000000000e+00 +6.4322711296876163e+00 +0.0000000000000000e+00 -4.4999999212958182e+00 +3.2394426917687800e-04 +0.0000000000000000e+00 +9.9999994753005417e-01
-4.5999999999999996e+00 +6.4322383753150714e+00 +0.0000000000000000e+00 -4.5999999159313578e+00 +3.3114318363213375e-04 +0.0000000000000000e+00 +9.9999994517209478e-01
-4.6999999999999993e+00 +6.4322049010505120e+00 +0.0000000000000000e+00 -4.6999999103285095e+00 +3.3834210942759036e-04 +0.0000000000000000e+00 +9.9999994276230719e-01
-4.7999999999999989e+00 +6.4321707068928218e+00 +0.0000000000000000e+00 -4.7999999044820916e+00 +3.4554104613319480e-04 +0.0000000000000000e+00 +9.9999994030069128e-01
-4.8999999999999986e+00 +6.4321357928409473e+00 +0.0000000000000000e+00 -4.8999998983869206e+00 +3.5273999294809844e-04 +0.0000000000000000e+00 +9.9999993778724705e-01
-4.9999999999999982e+00 +6.4321001588939337e+00 +0.0000000000000000e+00 -4.9999998920378133e+00 +3.5993894870066959e-04 +0.0000000000000000e+00 +9.9999993522197483e-01
-5.0999999999999979e+00 +6.4320638050509604e+00 +0.0000000000000000e+00 -5.0999998854295878e+00 +3.6713791187533215e-04 +0.0000000000000000e+00 +9.9999993260487485e-01
-5.1999999999999975e+00 +6.4320267313113639e+00 +0.0000000000000000e+00 -5.1999998785570609e+00 +3.7433688090765879e-04 +0.0000000000000000e+00 +9.9999992993594766e-01
-5.2999999999999972e+00 +6.4319889376746273e+00 +0.0000000000000000e+00 -5.2999998714150500e+00 +3.8153585447946230e-04 +0.0000000000000000e+00 +9.9999992721519360e-01
-5.3999999999999968e+00 +6.4319504241403518e+00 +0.0000000000000000e+00 -5.3999998639983726e+00 +3.8873483154563103e-04 +0.0000000000000000e+00 +9.9999992444261288e-01
-5.4999999999999964e+00 +6.4319111907082283e+00 +0.0000000000000000e+00 -5.4999998563018453e+00 +3.9593381133413888e-04 +0.0000000000000000e+00 +9.9999992161820583e-01
-5.5999999999999961e+00 +6.4318712373780116e+00 +0.0000000000000000e+00 -5.5999998483202864e+00 +4.0313279334605606e-04 +0.0000000000000000e+00 +9.9999991874197258e-01
-5.6999999999999957e+00 +6.4318305641494931e+00 +0.0000000000000000e+00 -5.6999998400485126e+00 +4.1033177735556002e-04 +0.0000000000000000e+00 +9.9999991581391312e-01
-5.7999999999999954e+00 +6.4317891710224728e+00 +0.0000000000000000e+00 -5.7999998314813412e+00 +4.1753076340994674e-04 +0.0000000000000000e+00 +9.9999991283402745e-01
-5.8999999999999950e+00 +6.4317470579967324e+00 +0.0000000000000000e+00 -5.8999998226135899e+00 +4.2472975182964280e-04 +0.0000000000000000e+00 +9.9999990980231535e-01
-5.9999999999999947e+00 +6.4317042250720080e+00 +0.0000000000000000e+00 -5.9999998134400760e+00 +4.3192874320821761e-04 +0.0000000000000000e+00 +9.9999990671877648e-01
-6.0999999999999943e+00 +6.4316606722479639e+00 +0.0000000000000000e+00 -6.0999998039556171e+00 +4.3912773839468669e-04 +0.0000000000000000e+00 +9.9999990358341051e-01
-6.1999999999999940e+00 +6.4316163995241720e+00 +0.0000000000000000e+00 -6.1999997941550307e+00 +4.4632673829871555e-04 +0.0000000000000000e+00 +9.9999990039621689e-01
-6.2999999999999936e+00 +6.4315714069001206e+00 +0.0000000000000000e+00 -6.2999997840331332e+00 +4.5352574369580078e-04 +0.0000000000000000e+00 +9.9999989715719517e-01
-6.3999999999999932e+00 +6.4315256943752281e+00 +0.0000000000000000e+00 -6.3999997735847423e+00 +4.6072475520953323e-04 +0.0000000000000000e+00 +9.9999989386634491e-01
-6.4999999999999929e+00 +6.4314792619488586e+00 +0.0000000000000000e+00 -6.4999997628046744e+00 +4.6792377331156948e-04 +0.0000000000000000e+00 +9.9999989052366578e-01
-6.5999999999999925e+00 +6.4314321096203351e+00 +0.0000000000000000e+00 -6.5999997516877471e+00 +4.7512279832160156e-04 +0.0000000000000000e+00 +9.9999988712915744e-01
-6.6999999999999922e+00 +6.4313842373889578e+00 +0.0000000000000000e+00 -6.6999997402287779e+00 +4.8232183040732588e-04 +0.0000000000000000e+00 +9.9999988368281978e-01
-6.7999999999999918e+00 +6.4313356452540171e+00 +0.0000000000000000e+00 -6.7999997284225833e+00 +4.8952086958441068e-04 +0.0000000000000000e+00 +9.9999988018465258e-01
-6.8999999999999915e+00 +6.4312863332148087e+00 +0.0000000000000000e+00 -6.8999997162639808e+00 +4.9671991571646258e-04 +0.0000000000000000e+00 +9.9999987663465573e-01
-6.9999999999999911e+00 +6.4312363012706513e+00 +0.0000000000000000e+00 -6.9999997037477870e+00 +5.0391896851499152e-04 +0.0000000000000000e+00 +9.9999987303282922e-01
-7.0999999999999908e+00 +6.4311855494208983e+00 +0.0000000000000000e+00 -7.0999996908688194e+00 +5.1111802755016286e-04 +0.0000000000000000e+00 +9.9999986937917318e-01
-7.1999999999999904e+00 +6.4311340776649493e+00 +0.0000000000000000e+00 -7.1999996776218946e+00 +5.1831709236943677e-04 +0.0000000000000000e+00 +9.9999986567368759e-01
-7.2999999999999901e+00 +6.4310818860022438e+00 +0.0000000000000000e+00 -7.2999996640018292e+00 +5.2551616261625473e-04 +0.0000000000000000e+00 +9.9999986191637258e-01
-7.3999999999999897e+00 +6.4310289744322535e+00 +0.0000000000000000e+00 -7.3999996500034415e+00 +5.3271523804087305e-04 +0.0000000000000000e+00 +9.9999985810722825e-01
-7.4999999999999893e+00 +6.4309753429544685e+00 +0.0000000000000000e+00 -7.4999996356215473e+00 +5.3991431850041198e-04 +0.0000000000000000e+00 +9.9999985424625448e-01
-7.5999999999999890e+00 +6.4309209915683869e+00 +0.0000000000000000e+00 -7.5999996208509648e+00 +5.4711340395890594e-04 +0.0000000000000000e+00 +9.9999985033345118e-01
-7.6999999999999886e+00 +6.4308659202735079e+00 +0.0000000000000000e+00 -7.6999996056865099e+00 +5.5431249448735617e-04 +0.0000000000000000e+00 +9.9999984636881822e-01
-7.7999999999999883e+00 +6.4308101290693154e+00 +0.0000000000000000e+00 -7.7999995901230008e+00 +5.6151159026378446e-04 +0.0000000000000000e+00 +9.9999984235235539e-01
-7.8999999999999879e+00 +6.4307536179552711e+00 +0.0000000000000000e+00 -7.8999995741552533e+00 +5.6871069157328924e-04 +0.0000000000000000e+00 +9.9999983828406236e-01
-7.9999999999999876e+00 +6.4306963869308031e+00 +0.0000000000000000e+00 -7.9999995577780849e+00 +5.7590979880810288e-04 +0.0000000000000000e+00 +9.9999983416393889e-01
-8.0999999999999872e+00 +6.4306384359952951e+00 +0.0000000000000000e+00 -8.0999995409863121e+00 +5.8310891245816386e-04 +0.0000000000000000e+00 +9.9999982999198445e-01
-8.1999999999999869e+00 +6.4305797651480807e+00 +0.0000000000000000e+00 -8.1999995237747534e+00 +5.9030803300680226e-04 +0.0000000000000000e+00 +9.9999982576819868e-01
-8.2999999999999865e+00 +6.4305203743884505e+00 +0.0000000000000000e+00 -8.2999995061382243e+00 +5.9750716082635565e-04 +0.0000000000000000e+00 +9.9999982149258126e-01
-8.3999999999999861e+00 +6.4304602637156645e+00 +0.0000000000000000e+00 -8.3999994880715416e+00 +6.0470629616861849e-04 +0.0000000000000000e+00 +9.9999981716513175e-01
-8.4999999999999858e+00 +6.4303994331289616e+00 +0.0000000000000000e+00 -8.4999994695695218e+00 +6.1190543916477534e-04 +0.0000000000000000e+00 +9.9999981278585004e-01
-8.5999999999999854e+00 +6.4303378826275752e+00 +0.0000000000000000e+00 -8.5999994506269832e+00 +6.1910458982533136e-04 +0.0000000000000000e+00 +9.9999980835473590e-01
-8.6999999999999851e+00 +6.4302756122107443e+00 +0.0000000000000000e+00 -8.6999994312387408e+00 +6.2630374804004086e-04 +0.0000000000000000e+00 +9.9999980387178922e-01
-8.7999999999999847e+00 +6.4302126218777227e+00 +0.0000000000000000e+00 -8.7999994113996127e+00 +6.3350291357783413e-04 +0.0000000000000000e+00 +9.9999979933701000e-01
-8.8999999999999844e+00 +6.4301489116277954e+00 +0.0000000000000000e+00 -8.8999993911044157e+00 +6.4070208608674151e-04 +0.0000000000000000e+00 +9.9999979475039824e-01
-8.9999999999999840e+00 +6.4300844814602884e+00 +0.0000000000000000e+00 -8.9999993703479646e+00 +6.4790126509381581e-04 +0.0000000000000000e+00 +9.9999979011195417e-01
-9.0999999999999837e+00 +6.4300193313745799e+00 +0.0000000000000000e+00 -9.0999993491250777e+00 +6.5510045001265804e-04 +0.0000000000000000e+00 +9.9999978542167800e-01
-9.1999999999999833e+00 +6.4299534613701095e+00 +0.0000000000000000e+00 -9.1999993274305716e+00 +6.6229964022701863e-04 +0.0000000000000000e+00 +9.9999978067957007e-01
-9.2999999999999829e+00 +6.4298868714463771e+00 +0.0000000000000000e+00 -9.2999993052592629e+00 +6.6949883517448082e-04 +0.0000000000000000e+00 +9.9999977588563060e-01
-9.3999999999999826e+00 +6.4298195616029341e+00 +0.0000000000000000e+00 -9.3999992826059700e+00 +6.7669803435413010e-04 +0.0000000000000000e+00 +9.9999977103985982e-01
-9.4999999999999822e+00 +6.4297515318393801e+00 +0.0000000000000000e+00 -9.4999992594655076e+00 +6.8389723732662248e-04 +0.0000000000000000e+00 +9.9999976614225794e-01
-9.5999999999999819e+00 +6.4296827821553553e+00 +0.0000000000000000e+00 -9.5999992358326942e+00 +6.9109644371425456e-04 +0.0000000000000000e+00 +9.9999976119282508e-01
-9.6999999999999815e+00 +6.4296133125505346e+00 +0.0000000000000000e+00 -9.6999992117023446e+00 +6.9829565320103561e-04 +0.0000000000000000e+00 +9.9999975619156145e-01
-9.7999999999999812e+00 +6.4295431230246205e+00 +0.0000000000000000e+00 -9.7999991870692771e+00 +7.0549486553276133e-04 +0.0000000000000000e+00 +9.9999975113846717e-01
-9.8999999999999808e+00 +6.4294722135773394e+00 +0.0000000000000000e+00 -9.8999991619283101e+00 +7.1269408051709000e-04 +0.0000000000000000e+00 +9.9999974603354236e-01
-9.9999999999999805e+00 +6.4294005842084330e+00 +0.0000000000000000e+00 -9.9999991362742584e+00 +7.1989329802362009e-04 +0.0000000000000000e+00 +9.9999974087678700e-01
-1.0099999999999980e+01 +6.4293282349176533e+00 +0.0000000000000000e+00 -1.0099999110101940e+01 +7.2709251798215113e-04 +0.0000000000000000e+00 +9.9999973566820111e-01
-1.0199999999999980e+01 +6.4292551657047561e+00 +0.0000000000000000e+00 -1.0199999083406171e+01 +7.3429174036273909e-04 +0.0000000000000000e+00 +9.9999973040778456e-01
-1.0299999999999979e+01 +6.4291813765694998e+00 +0.0000000000000000e+00 -1.0299999056181768e+01 +7.4149096515567427e-04 +0.0000000000000000e+00 +9.9999972509553736e-01
-1.0399999999999979e+01 +6.4291068675116438e+00 +0.0000000000000000e+00 -1.0399999028423551e+01 +7.4869019236960700e-04 +0.0000000000000000e+00 +9.9999971973145951e-01
-1.0499999999999979e+01 +6.4290316385309447e+00 +0.0000000000000000e+00 -1.0499999000126333e+01 +7.5588942203148760e-04 +0.0000000000000000e+00 +9.9999971431555090e-01
-1.0599999999999978e+01 +6.4289556896271547e+00 +0.0000000000000000e+00 -1.0599998971284933e+01 +7.6308865418650562e-04 +0.0000000000000000e+00 +9.9999970884781142e-01
-1.0699999999999978e+01 +6.4288790208000224e+00 +0.0000000000000000e+00 -1.0699998941894167e+01 +7.7028788889802683e-04 +0.0000000000000000e+00 +9.9999970332824095e-01
-1.0799999999999978e+01 +6.4288016320492876e+00 +0.0000000000000000e+00 -1.0799998911948853e+01 +7.7748712624752913e-04 +0.0000000000000000e+00 +9.9999969775683939e-01
-1.0899999999999977e+01 +6.4287235233746820e+00 +0.0000000000000000e+00 -1.0899998881443807e+01 +7.8468636633453686e-04 +0.0000000000000000e+00 +9.9999969213360662e-01
-1.0999999999999977e+01 +6.4286446947759259e+00 +0.0000000000000000e+00 -1.0999998850373846e+01 +7.9188560927655335e-04 +0.0000000000000000e+00 +9.9999968645854254e-01
-1.1099999999999977e+01 +6.4285651462527271e+00 +0.0000000000000000e+00 -1.1099998818733788e+01 +7.9908485520710374e-04 +0.0000000000000000e+00 +9.9999968073164691e-01
-1.1199999999999976e+01 +6.4284848778047801e+00 +0.0000000000000000e+00 -1.1199998786518448e+01 +8.0628410425490657e-04 +0.0000000000000000e+00 +9.9999967495291953e-01
-1.1299999999999976e+01 +6.4284038894317685e+00 +0.0000000000000000e+00 -1.1299998753722644e+01 +8.1348335652310871e-04 +0.0000000000000000e+00 +9.9999966912236038e-01
-1.1399999999999975e+01 +6.4283221811333657e+00 +0.0000000000000000e+00 -1.1399998720341193e+01 +8.2068261208744268e-04 +0.0000000000000000e+00 +9.9999966323996925e-01
-1.1499999999999975e+01 +6.4282397529092394e+00 +0.0000000000000000e+00 -1.1499998686368910e+01 +8.2788187099627547e-04 +0.0000000000000000e+00 +9.9999965730574591e-01
-1.1599999999999975e+01 +6.4281566047590539e+00 +0.0000000000000000e+00 -1.1599998651800613e+01 +8.3508113327065861e-04 +0.0000000000000000e+00 +9.9999965131969049e-01
-1.1699999999999974e+01 +6.4280727366824735e+00 +0.0000000000000000e+00 -1.1699998616631120e+01 +8.4228039890437963e-04 +0.0000000000000000e+00 +9.9999964528180274e-01
