# field on trajectory
# s[mm] rx[mm] ry[mm] rz[mm] bx[T] by[T] bz[T]
0.0000000000000000e+00 +6.4329999999999998e+00 +0.0000000000000000e+00 +0.0000000000000000e+00 +3.2629767314206127e-05 -4.3023995297872999e-02 -1.7437312193104685e-04
1.0000000000000001e-01 +6.4329996407366545e+00 +0.0000000000000000e+00 +9.9999999999139527e-02 +3.2625703263442286e-05 -4.3024014377092440e-02 -1.7438857944288054e-04
2.0000000000000001e-01 +6.4329985629463868e+00 +0.0000000000000000e+00 +1.9999999999311624e-01 +3.2621177241723541e-05 -4.3024039792033127e-02 -1.7440301847013043e-04
3.0000000000000004e-01 +6.4329967666287740e+00 +0.0000000000000000e+00 +2.9999999997676735e-01 +3.2616287579037339e-05 -4.3024070504878130e-02 -1.7441640797208194e-04
4.0000000000000002e-01 +6.4329942517833043e+00 +0.0000000000000000e+00 +3.9999999994492996e-01 +3.2611132611423609e-05 -4.3024105477824259e-02 -1.7442871690886009e-04
5.0000000000000000e-01 +6.4329910184093961e+00 +0.0000000000000000e+00 +4.9999999989244132e-01 +3.2605810682411382e-05 -4.3024143673078344e-02 -1.7443991424610908e-04
5.9999999999999998e-01 +6.4329870665064126e+00 +0.0000000000000000e+00 +5.9999999981413854e-01 +3.2600420144455616e-05 -4.3024184052853527e-02 -1.7444996895967161e-04
6.9999999999999996e-01 +6.4329823960736814e+00 +0.0000000000000000e+00 +6.9999999970485871e-01 +3.2595059360373884e-05 -4.3024225579365596e-02 -1.7445885004026851e-04
7.9999999999999993e-01 +6.4329770071105097e+00 +0.0000000000000000e+00 +7.9999999955943890e-01 +3.2589826704783124e-05 -4.3024267214829222e-02 -1.7446652649817749e-04
8.9999999999999991e-01 +6.4329708996162047e+00 +0.0000000000000000e+00 +8.9999999937271635e-01 +3.2584820565536463e-05 -4.3024307921454369e-02 -1.7447296736791294e-04
9.9999999999999989e-01 +6.4329640735900888e+00 +0.0000000000000000e+00 +9.9999999913952808e-01 +3.2580139345159953e-05 -4.3024346661442475e-02 -1.7447814171290461e-04
1.0999999999999999e+00 +6.4329565290315163e+00 +0.0000000000000000e+00 +1.0999999988547111e+00 +3.2575934692012657e-05 -4.3024382610100734e-02 -1.7448205772404215e-04
1.2000000000000000e+00 +6.4329482659398867e+00 +0.0000000000000000e+00 +1.1999999985131025e+00 +3.2572571183562246e-05 -4.3024415795191770e-02 -1.7448487998856214e-04
1.3000000000000000e+00 +6.4329392843146458e+00 +0.0000000000000000e+00 +1.2999999981095394e+00 +3.2570466623657006e-05 -4.3024446457576491e-02 -1.7448681217758030e-04
1.4000000000000001e+00 +6.4329295841552820e+00 +0.0000000000000000e+00 +1.3999999976388589e+00 +3.2570038807856683e-05 -4.3024474838092394e-02 -1.7448805794177669e-04
1.5000000000000002e+00 +6.4329191654613211e+00 +0.0000000000000000e+00 +1.4999999970958977e+00 +3.2571705520084334e-05 -4.3024501177549891e-02 -1.7448882090473128e-04
1.6000000000000003e+00 +6.4329080282323234e+00 +0.0000000000000000e+00 +1.5999999964754932e+00 +3.2575884529277845e-05 -4.3024525716728559e-02 -1.7448930465625880e-04
1.7000000000000004e+00 +6.4328961724678804e+00 +0.0000000000000000e+00 +1.6999999957724823e+00 +3.2582993586041500e-05 -4.3024548696373476e-02 -1.7448971274574521e-04
1.8000000000000005e+00 +6.4328835981676074e+00 +0.0000000000000000e+00 +1.7999999949817020e+00 +3.2593450419297161e-05 -4.3024570357191462e-02 -1.7449024867548319e-04
1.9000000000000006e+00 +6.4328703053311429e+00 +0.0000000000000000e+00 +1.8999999940979895e+00 +3.2607672732935623e-05 -4.3024590939847410e-02 -1.7449111589400927e-04
2.0000000000000004e+00 +6.4328562939581442e+00 +0.0000000000000000e+00 +1.9999999931161814e+00 +3.2626078202467413e-05 -4.3024610684960517e-02 -1.7449251778944052e-04
2.1000000000000005e+00 +6.4328415640482817e+00 +0.0000000000000000e+00 +2.0999999920311150e+00 +3.2648841104732829e-05 -4.3024629890062421e-02 -1.7449456905655418e-04
2.2000000000000006e+00 +6.4328261156012347e+00 +0.0000000000000000e+00 +2.1999999908376271e+00 +3.2675162225711368e-05 -4.3024649080505344e-02 -1.7449702983723237e-04
2.3000000000000007e+00 +6.4328099486166828e+00 +0.0000000000000000e+00 +2.2999999895305550e+00 +3.2703998981327702e-05 -4.3024668838622430e-02 -1.7449957164209989e-04
2.4000000000000008e+00 +6.4327930630942962e+00 +0.0000000000000000e+00 +2.3999999881047356e+00 +3.2734308788227629e-05 -4.3024689746777360e-02 -1.7450186598524405e-04
2.5000000000000009e+00 +6.4327754590337252e+00 +0.0000000000000000e+00 +2.4999999865550055e+00 +3.2765049064679859e-05 -4.3024712387369803e-02 -1.7450358438660490e-04
2.6000000000000010e+00 +6.4327571364345921e+00 +0.0000000000000000e+00 +2.5999999848762023e+00 +3.2795177231477927e-05 -4.3024737342840735e-02 -1.7450439837436455e-04
2.7000000000000011e+00 +6.4327380952964797e+00 +0.0000000000000000e+00 +2.6999999830631625e+00 +3.2823650712842524e-05 -4.3024765195677897e-02 -1.7450397948733727e-04
2.8000000000000012e+00 +6.4327183356189241e+00 +0.0000000000000000e+00 +2.7999999811107230e+00 +3.2849426937324168e-05 -4.3024796528421089e-02 -1.7450199927735935e-04
2.9000000000000012e+00 +6.4326978574014015e+00 +0.0000000000000000e+00 +2.8999999790137210e+00 +3.2871463338706037e-05 -4.3024831923667704e-02 -1.7449812931167875e-04
3.0000000000000013e+00 +6.4326766606433212e+00 +0.0000000000000000e+00 +2.9999999767669929e+00 +3.2888717356907302e-05 -4.3024871964077914e-02 -1.7449204117534487e-04
3.1000000000000014e+00 +6.4326547453440144e+00 +0.0000000000000000e+00 +3.0999999743653759e+00 +3.2900447167522283e-05 -4.3024917040989555e-02 -1.7448349443223055e-04
3.2000000000000015e+00 +6.4326321115027305e+00 +0.0000000000000000e+00 +3.1999999718037069e+00 +3.2907113872502670e-05 -4.3024966780226027e-02 -1.7447260050340848e-04
3.3000000000000016e+00 +6.4326087591186409e+00 +0.0000000000000000e+00 +3.2999999690768225e+00 +3.2909479320368742e-05 -4.3025020616228773e-02 -1.7445955879323650e-04
3.4000000000000017e+00 +6.4325846881908486e+00 +0.0000000000000000e+00 +3.3999999661795592e+00 +3.2908305379500256e-05 -4.3025077983442010e-02 -1.7444456873291753e-04
3.5000000000000018e+00 +6.4325598987183978e+00 +0.0000000000000000e+00 +3.4999999631067542e+00 +3.2904353939759366e-05 -4.3025138316312300e-02 -1.7442782978285026e-04
3.6000000000000019e+00 +6.4325343907002823e+00 +0.0000000000000000e+00 +3.5999999598532439e+00 +3.2898386914112995e-05 -4.3025201049288080e-02 -1.7440954143497928e-04
3.7000000000000020e+00 +6.4325081641354567e+00 +0.0000000000000000e+00 +3.6999999564138650e+00 +3.2891166240255083e-05 -4.3025265616819228e-02 -1.7438990321514452e-04
3.8000000000000020e+00 +6.4324812190228453e+00 +0.0000000000000000e+00 +3.7999999527834545e+00 +3.2883453882228287e-05 -4.3025331453356616e-02 -1.7436911468543081e-04
3.9000000000000021e+00 +6.4324535553613504e+00 +0.0000000000000000e+00 +3.8999999489568484e+00 +3.2876011832045226e-05 -4.3025397993351734e-02 -1.7434737544651612e-04
4.0000000000000018e+00 +6.4324251731498627e+00 +0.0000000000000000e+00 +3.9999999449288834e+00 +3.2869602111309569e-05 -4.3025464671256147e-02 -1.7432488514001988e-04
4.1000000000000014e+00 +6.4323960723872711e+00 +0.0000000000000000e+00 +4.0999999406943965e+00 +3.2864823083237068e-05 -4.3025530882987932e-02 -1.7430177195239970e-04
4.2000000000000011e+00 +6.4323662530724723e+00 +0.0000000000000000e+00 +4.1999999362482239e+00 +3.2861618370165378e-05 -4.3025595870293705e-02 -1.7427787810070264e-04
4.3000000000000007e+00 +6.4323357152043847e+00 +0.0000000000000000e+00 +4.2999999315852016e+00 +3.2859767898455142e-05 -4.3025658836278229e-02 -1.7425297429246448e-04
4.4000000000000004e+00 +6.4323044587819584e+00 +0.0000000000000000e+00 +4.3999999267001666e+00 +3.2859051584256281e-05 -4.3025718983921310e-02 -1.7422683121799120e-04
4.5000000000000000e+00 +6.4322724838041916e+00 +0.0000000000000000e+00 +4.4999999215879551e+00 +3.2859249332564176e-05 -4.3025775516070536e-02 -1.7419921954895911e-04
4.5999999999999996e+00 +6.4322397902701427e+00 +0.0000000000000000e+00 +4.5999999162434042e+00 +3.2860141036276591e-05 -4.3025827635433944e-02 -1.7416990993701550e-04
4.6999999999999993e+00 +6.4322063781789449e+00 +0.0000000000000000e+00 +4.6999999106613499e+00 +3.2861506575251144e-05 -4.3025874544572761e-02 -1.7413867301237980e-04
4.7999999999999989e+00 +6.4321722475298166e+00 +0.0000000000000000e+00 +4.7999999048366284e+00 +3.2863125815363573e-05 -4.3025915445894070e-02 -1.7410527938244478e-04
4.8999999999999986e+00 +6.4321373983220784e+00 +0.0000000000000000e+00 +4.8999998987640767e+00 +3.2864778607566817e-05 -4.3025949541643543e-02 -1.7406949963037888e-04
4.9999999999999982e+00 +6.4321018305551636e+00 +0.0000000000000000e+00 +4.9999998924385309e+00 +3.2866244786950807e-05 -4.3025976033898169e-02 -1.7403110431372869e-04
5.0999999999999979e+00 +6.4320655442286325e+00 +0.0000000000000000e+00 +5.0999998858548281e+00 +3.2867392670394941e-05 -4.3025994518214414e-02 -1.7398997051136668e-04
5.1999999999999975e+00 +6.4320285393421761e+00 +0.0000000000000000e+00 +5.1999998790078044e+00 +3.2868444550784020e-05 -4.3026006164756374e-02 -1.7394640147300961e-04
5.2999999999999972e+00 +6.4319908158955998e+00 +0.0000000000000000e+00 +5.2999998718922967e+00 +3.2869711196514759e-05 -4.3026012537616884e-02 -1.7390080698027603e-04
5.3999999999999968e+00 +6.4319523738887971e+00 +0.0000000000000000e+00 +5.3999998645031422e+00 +3.2871503350694253e-05 -4.3026015201215725e-02 -1.7385359679800074e-04
5.4999999999999964e+00 +6.4319132133217236e+00 +0.0000000000000000e+00 +5.4999998568351769e+00 +3.2874131729927663e-05 -4.3026015720316273e-02 -1.7380518067348872e-04
5.5999999999999961e+00 +6.4318733341943695e+00 +0.0000000000000000e+00 +5.5999998488832370e+00 +3.2877907023104780e-05 -4.3026015660041973e-02 -1.7375596833576747e-04
5.6999999999999957e+00 +6.4318327365067365e+00 +0.0000000000000000e+00 +5.6999998406421604e+00 +3.2883139890185498e-05 -4.3026016585892946e-02 -1.7370636949483995e-04
5.7999999999999954e+00 +6.4317914202588087e+00 +0.0000000000000000e+00 +5.7999998321067832e+00 +3.2890140960984074e-05 -4.3026020063762473e-02 -1.7365679384093722e-04
5.8999999999999950e+00 +6.4317493854505283e+00 +0.0000000000000000e+00 +5.8999998232719424e+00 +3.2899220833952238e-05 -4.3026027659953649e-02 -1.7360765104377029e-04
5.9999999999999947e+00 +6.4317066320817684e+00 +0.0000000000000000e+00 +5.9999998141324742e+00 +3.2910690074961043e-05 -4.3026040941195796e-02 -1.7355935075178241e-04
6.0999999999999943e+00 +6.4316631601523069e+00 +0.0000000000000000e+00 +6.0999998046832156e+00 +3.2924676021926818e-05 -4.3026061169973512e-02 -1.7351230889236168e-04
6.1999999999999940e+00 +6.4316189696618089e+00 +0.0000000000000000e+00 +6.1999997949190027e+00 +3.2940573207403004e-05 -4.3026088390215975e-02 -1.7346696659987520e-04
6.2999999999999936e+00 +6.4315740606098215e+00 +0.0000000000000000e+00 +6.2999997848346725e+00 +3.2957592960580894e-05 -4.3026122340915116e-02 -1.7342377135845622e-04
6.3999999999999932e+00 +6.4315284329957816e+00 +0.0000000000000000e+00 +6.3999997744250612e+00 +3.2974946606085597e-05 -4.3026162760739090e-02 -1.7338317070964262e-04
6.4999999999999929e+00 +6.4314820868190168e+00 +0.0000000000000000e+00 +6.4999997636850049e+00 +3.2991845464049807e-05 -4.3026209388017420e-02 -1.7334561225476250e-04
6.5999999999999925e+00 +6.4314350220787500e+00 +0.0000000000000000e+00 +6.5999997526093406e+00 +3.3007500850189512e-05 -4.3026261960726273e-02 -1.7331154365731946e-04
6.6999999999999922e+00 +6.4313872387741071e+00 +0.0000000000000000e+00 +6.6999997411929035e+00 +3.3021124075881203e-05 -4.3026320216473520e-02 -1.7328141264537667e-04
6.7999999999999918e+00 +6.4313387369041175e+00 +0.0000000000000000e+00 +6.7999997294305308e+00 +3.3031926448240948e-05 -4.3026383892484088e-02 -1.7325566701393994e-04
6.8999999999999915e+00 +6.4312895164677206e+00 +0.0000000000000000e+00 +6.8999997173170584e+00 +3.3039119270205230e-05 -4.3026452725585057e-02 -1.7323475462734041e-04
6.9999999999999911e+00 +6.4312395774637707e+00 +0.0000000000000000e+00 +6.9999997048473217e+00 +3.3041913840613612e-05 -4.3026526452190898e-02 -1.7321912342161568e-04
7.0999999999999908e+00 +6.4311889198910386e+00 +0.0000000000000000e+00 +7.0999996920161577e+00 +3.3039853833549707e-05 -4.3026604706256306e-02 -1.7320895171257406e-04
7.1999999999999904e+00 +6.4311375437482212e+00 +0.0000000000000000e+00 +7.1999996788184015e+00 +3.3033812489246056e-05 -4.3026686713335566e-02 -1.7320333906541409e-04
7.2999999999999901e+00 +6.4310854490339535e+00 +0.0000000000000000e+00 +7.2999996652488894e+00 +3.3024995544678393e-05 -4.3026771596981844e-02 -1.7320111531248997e-04
7.3999999999999897e+00 +6.4310326357468206e+00 +0.0000000000000000e+00 +7.3999996513024566e+00 +3.3014608862895770e-05 -4.3026858480827837e-02 -1.7320111024073825e-04
7.4999999999999893e+00 +6.4309791038853765e+00 +0.0000000000000000e+00 +7.4999996369739392e+00 +3.3003858437385767e-05 -4.3026946488589277e-02 -1.7320215358987006e-04
7.5999999999999890e+00 +6.4309248534481549e+00 +0.0000000000000000e+00 +7.5999996222581734e+00 +3.2993950396437365e-05 -4.3027034744068451e-02 -1.7320307505056396e-04
7.6999999999999886e+00 +6.4308698844336858e+00 +0.0000000000000000e+00 +7.6999996071499943e+00 +3.2986091007501339e-05 -4.3027122371157633e-02 -1.7320270426266152e-04
7.7999999999999883e+00 +6.4308141968405108e+00 +0.0000000000000000e+00 +7.7999995916442382e+00 +3.2981486681548470e-05 -4.3027208493842665e-02 -1.7319987081336491e-04
7.8999999999999879e+00 +6.4307577906671947e+00 +0.0000000000000000e+00 +7.8999995757357402e+00 +3.2981343977425043e-05 -4.3027292236206403e-02 -1.7319340423543593e-04
7.9999999999999876e+00 +6.4307006659123429e+00 +0.0000000000000000e+00 +7.9999995594193356e+00 +3.2986869606205911e-05 -4.3027372722432247e-02 -1.7318213400539789e-04
8.0999999999999872e+00 +6.4306428225746162e+00 +0.0000000000000000e+00 +8.0999995426898597e+00 +3.2998810499778110e-05 -4.3027449231855988e-02 -1.7316521268295951e-04
8.1999999999999869e+00 +6.4305842606527390e+00 +0.0000000000000000e+00 +8.1999995255421503e+00 +3.3016073860837121e-05 -4.3027521664150234e-02 -1.7314308538389820e-04
8.2999999999999865e+00 +6.4305249801455053e+00 +0.0000000000000000e+00 +8.2999995079710409e+00 +3.3037106766854847e-05 -4.3027590074227288e-02 -1.7311652040682602e-04
8.3999999999999861e+00 +6.4304649810517756e+00 +0.0000000000000000e+00 +8.3999994899713677e+00 +3.3060356081005229e-05 -4.3027654517199407e-02 -1.7308628609303552e-04
8.4999999999999858e+00 +6.4304042633704759e+00 +0.0000000000000000e+00 +8.4999994715379668e+00 +3.3084268445289913e-05 -4.3027715048384846e-02 -1.7305315082777732e-04
8.5999999999999854e+00 +6.4303428271005991e+00 +0.0000000000000000e+00 +8.5999994526656742e+00 +3.3107290273666608e-05 -4.3027771723313936e-02 -1.7301788304153651e-04
8.6999999999999851e+00 +6.4302806722412011e+00 +0.0000000000000000e+00 +8.6999994333493245e+00 +3.3127867745180137e-05 -4.3027824597735256e-02 -1.7298125121130716e-04
8.7999999999999847e+00 +6.4302177987914027e+00 +0.0000000000000000e+00 +8.7999994135837536e+00 +3.3144446797096398e-05 -4.3027873727621568e-02 -1.7294402386186497e-04
8.8999999999999844e+00 +6.4301542067503865e+00 +0.0000000000000000e+00 +8.8999993933637978e+00 +3.3155473118039060e-05 -4.3027919169176088e-02 -1.7290696956703919e-04
8.9999999999999840e+00 +6.4300898961173960e+00 +0.0000000000000000e+00 +8.9999993726842931e+00 +3.3159392141129287e-05 -4.3027960978838369e-02 -1.7287085695098106e-04
9.0999999999999837e+00 +6.4300248668917375e+00 +0.0000000000000000e+00 +9.0999993515400739e+00 +3.3155161318986371e-05 -4.3027999332352074e-02 -1.7283631977131581e-04
9.1999999999999833e+00 +6.4299591190727714e+00 +0.0000000000000000e+00 +9.1999993299259781e+00 +3.3143787141374180e-05 -4.3028034881735067e-02 -1.7280345210484704e-04
9.2999999999999829e+00 +6.4298926526599072e+00 +0.0000000000000000e+00 +9.2999993078368401e+00 +3.3126788514271314e-05 -4.3028068397687413e-02 -1.7277221301703686e-04
9.3999999999999826e+00 +6.4298254676525870e+00 +0.0000000000000000e+00 +9.3999992852674961e+00 +3.3105684497820352e-05 -4.3028100650456272e-02 -1.7274256146976086e-04
9.4999999999999822e+00 +6.4297575640502753e+00 +0.0000000000000000e+00 +9.4999992622127820e+00 +3.3081994310894386e-05 -4.3028132409823332e-02 -1.7271445631842529e-04
9.5999999999999819e+00 +6.4296889418524437e+00 +0.0000000000000000e+00 +9.5999992386675341e+00 +3.3057237335660699e-05 -4.3028164445091992e-02 -1.7268785630908552e-04
9.6999999999999815e+00 +6.4296196010585591e+00 +0.0000000000000000e+00 +9.6999992146265868e+00 +3.3032933122142053e-05 -4.3028197525074786e-02 -1.7266272007556400e-04
9.7999999999999812e+00 +6.4295495416680728e+00 +0.0000000000000000e+00 +9.7999991900847778e+00 +3.3010601392775230e-05 -4.3028232418080570e-02 -1.7263900613657032e-04
9.8999999999999808e+00 +6.4294787636804038e+00 +0.0000000000000000e+00 +9.8999991650369417e+00 +3.2991762046966860e-05 -4.3028269891901942e-02 -1.7261667289282084e-04
9.9999999999999805e+00 +6.4294072670949287e+00 +0.0000000000000000e+00 +9.9999991394779144e+00 +3.2977935165646445e-05 -4.3028310713802531e-02 -1.7259567862415963e-04
1.0099999999999980e+01 +6.4293350519109689e+00 +0.0000000000000000e+00 +1.0099999113402532e+01 +3.2970211119709501e-05 -4.3028355298101166e-02 -1.7257592214669956e-04
1.0199999999999980e+01 +6.4292621181277854e+00 +0.0000000000000000e+00 +1.0199999086805629e+01 +3.2967960750892733e-05 -4.3028402649183249e-02 -1.7255706484641358e-04
1.0299999999999979e+01 +6.4291884657445930e+00 +0.0000000000000000e+00 +1.0299999059682042e+01 +3.2970124924671008e-05 -4.3028451419196395e-02 -1.7253870881077995e-04
1.0399999999999979e+01 +6.4291140947605827e+00 +0.0000000000000000e+00 +1.0399999032026606e+01 +3.2975644424061499e-05 -4.3028500260545340e-02 -1.7252045618897018e-04
1.0499999999999979e+01 +6.4290390051749444e+00 +0.0000000000000000e+00 +1.0499999003834159e+01 +3.2983459947534540e-05 -4.3028547825898981e-02 -1.7250190919358973e-04
1.0599999999999978e+01 +6.4289631969868895e+00 +0.0000000000000000e+00 +1.0599998975099533e+01 +3.2992512106926626e-05 -4.3028592768197725e-02 -1.7248267010241912e-04
1.0699999999999978e+01 +6.4288866701956735e+00 +0.0000000000000000e+00 +1.0699998945817564e+01 +3.3001741425355767e-05 -4.3028633740660495e-02 -1.7246234126015522e-04
1.0799999999999978e+01 +6.4288094248006180e+00 +0.0000000000000000e+00 +1.0799998915983089e+01 +3.3010088335138856e-05 -4.3028669396791862e-02 -1.7244052508015348e-04
1.0899999999999977e+01 +6.4287314608011332e+00 +0.0000000000000000e+00 +1.0899998885590943e+01 +3.3016493175711705e-05 -4.3028698390389239e-02 -1.7241682404617063e-04
1.0999999999999977e+01 +6.4286527781967404e+00 +0.0000000000000000e+00 +1.0999998854635962e+01 +3.3019896191551115e-05 -4.3028719375550022e-02 -1.7239084071410781e-04
1.1099999999999977e+01 +6.4285733769870950e+00 +0.0000000000000000e+00 +1.1099998823112982e+01 +3.3019547510104789e-05 -4.3028731584952337e-02 -1.7236235531961576e-04
1.1199999999999976e+01 +6.4284932571719944e+00 +0.0000000000000000e+00 +1.1199998791016837e+01 +3.3015937175618720e-05 -4.3028736564801988e-02 -1.7233185859423359e-04
1.1299999999999976e+01 +6.4284124187513569e+00 +0.0000000000000000e+00 +1.1299998758342365e+01 +3.3009865280565787e-05 -4.3028736440048426e-02 -1.7230001888818847e-04
1.1399999999999975e+01 +6.4283308617251862e+00 +0.0000000000000000e+00 +1.1399998725084401e+01 +3.3002131978917019e-05 -4.3028733336090849e-02 -1.7226750454537513e-04
1.1499999999999975e+01 +6.4282485860935346e+00 +0.0000000000000000e+00 +1.1499998691237783e+01 +3.2993537487574658e-05 -4.3028729378788030e-02 -1.7223498390320604e-04
1.1599999999999975e+01 +6.4281655918564704e+00 +0.0000000000000000e+00 +1.1599998656797345e+01 +3.2984882087803192e-05 -4.3028726694468111e-02 -1.7220312529246166e-04
1.1699999999999974e+01 +6.4280818790140390e+00 +0.0000000000000000e+00 +1.1699998621757924e+01 +3.2976966126658713e-05 -4.3028727409938461e-02 -1.7217259703713813e-04
1.1799999999999974e+01 +6.4279974475662298e+00 +0.0000000000000000e+00 +1.1799998586114356e+01 +3.2970590018416338e-05 -4.3028733652495432e-02 -1.7214406745429462e-04
