# multipoles
# s[mm] polynom_b[n=0][T/m^n] polynom_b[n=1][T/m^n] polynom_b[n=2][T/m^n] polynom_b[n=3][T/m^n] polynom_b[n=4][T/m^n] polynom_b[n=5][T/m^n] polynom_b[n=6][T/m^n] 
+0.0000000000000000e+00 -4.3024643857448933e-02 +9.1376044937710274e-02 +7.7603834782733916e-01 -4.7990816647361472e+00 +6.8228875356028141e+02 +4.3368549722952412e+04 -2.5305437928506299e+06 
+1.0000000000000001e-01 -4.3024668058912502e-02 +9.1366242696861943e-02 +7.7626231175230020e-01 -4.6126936342231639e+00 +6.6402650104295878e+02 +4.2565778133802829e+04 -2.3943000940367263e+06 
+2.0000000000000001e-01 -4.3024690735741680e-02 +9.1354802282368933e-02 +7.7649409915507295e-01 -4.3794688134853086e+00 +6.4441665346355012e+02 +4.1556959697257204e+04 -2.2439943272059597e+06 
+3.0000000000000004e-01 -4.3024711917299355e-02 +9.1342431136449354e-02 +7.7669684510321590e-01 -4.1151378836244001e+00 +6.2473917864510247e+02 +4.0407696081861788e+04 -2.0879891044633200e+06 
+4.0000000000000002e-01 -4.3024731632951882e-02 +9.1329836703091805e-02 +7.7683368508283002e-01 -3.8354315997191590e+00 +6.0627403260675612e+02 +3.9183589443841753e+04 -1.9346469642921975e+06 
+5.0000000000000000e-01 -4.3024749912071066e-02 +9.1317726427744106e-02 +7.7686775497904292e-01 -3.5560807911947721e+00 +5.9030116382186930e+02 +3.7950242505602720e+04 -1.7923304025395762e+06 
+5.9999999999999998e-01 -4.3024766784044544e-02 +9.1306807756815156e-02 +7.7676219206700681e-01 -3.2928163566056861e+00 +5.7810049853136024e+02 +3.6773258600846530e+04 -1.6694018138757432e+06 
+6.9999999999999996e-01 -4.3024782278275296e-02 +9.1297788136836006e-02 +7.7648013467063914e-01 -3.0613692470070180e+00 +5.7095195127185332e+02 +3.5718241649195319e+04 -1.5742235530104653e+06 
+7.9999999999999993e-01 -4.3024796424190326e-02 +9.1291375013911574e-02 +7.7598472291173026e-01 -2.8774704588877702e+00 +5.7013541495387176e+02 +3.4850796189568631e+04 -1.5151578993269880e+06 
+8.9999999999999991e-01 -4.3024809251244404e-02 +9.1288275833581234e-02 +7.7523909893080412e-01 -2.7568510397192063e+00 +5.7693076046177509e+02 +3.4236527489354943e+04 -1.5005670653782904e+06 
+9.9999999999999989e-01 -4.3024820788926450e-02 +9.1289198039608485e-02 +7.7420640735864510e-01 -2.7152420603792575e+00 +5.9261783184461638e+02 +3.3941041455314808e+04 -1.5388131852119130e+06 
+1.0999999999999999e+00 -4.3024831145009601e-02 +9.1294601698529598e-02 +7.7286302007721752e-01 -2.7633604510364997e+00 +6.1801689850911771e+02 +3.4009606516429856e+04 -1.6353988264966323e+06 
+1.2000000000000000e+00 -4.3024840738297286e-02 +9.1303951482136964e-02 +7.7124006773200393e-01 -2.8915832864741904e+00 +6.5207215368917548e+02 +3.4404207665398972e+04 -1.7842391104146817e+06 
+1.3000000000000000e+00 -4.3024850064863639e-02 +9.1316461716281203e-02 +7.6938284052247041e-01 -3.0851314754749102e+00 +6.9324910696303834e+02 +3.5065526534294622e+04 -1.9763136782782651e+06 
+1.4000000000000001e+00 -4.3024859620765174e-02 +9.1331346724096582e-02 +7.6733662717044404e-01 -3.3292257752293093e+00 +7.4001329240138080e+02 +3.5934243556506379e+04 -2.2026022898900276e+06 
+1.5000000000000002e+00 -4.3024869902031117e-02 +9.1347820826320439e-02 +7.6514671405363877e-01 -3.6090867812693941e+00 +7.9083028221167024e+02 +3.6951037803070249e+04 -2.4540848836977012e+06 
+1.6000000000000003e+00 -4.3024881404660771e-02 +9.1365098340538117e-02 +7.6285838515224114e-01 -3.9099348829724199e+00 +8.4416568553422280e+02 +3.8056586609012033e+04 -2.7217415682203420e+06 
+1.7000000000000004e+00 -4.3024894624614313e-02 +9.1382393580697427e-02 +7.6051692123031045e-01 -4.2169902275365008e+00 +8.9848516097392405e+02 +3.9191565251268781e+04 -2.9965526762470235e+06 
+1.8000000000000005e+00 -4.3024910057805260e-02 +9.1398920857079791e-02 +7.5816759921408405e-01 -4.5154726981593809e+00 +9.5225442603578006e+02 +4.0296646712286958e+04 -3.2694988064992721e+06 
+1.9000000000000006e+00 -4.3024928200094924e-02 +9.1413894475743426e-02 +7.5585569183243906e-01 -4.7906018760314160e+00 +1.0039392609386397e+03 +4.1312501346291559e+04 -3.5315608364483151e+06 
+2.0000000000000004e+00 -4.3024949547285252e-02 +9.1426528738227694e-02 +7.5362646697560498e-01 -5.0275970076191214e+00 +1.0520055191376714e+03 +4.2179796575537970e+04 -3.7737199708471429e+06 
+2.1000000000000005e+00 -4.3024974462691302e-02 +9.1436220114015615e-02 +7.5151781582966704e-01 -5.2147023424477101e+00 +1.0952496789529134e+03 +4.2851262298088266e+04 -3.9889389757965351e+06 
+2.2000000000000006e+00 -4.3025002805493977e-02 +9.1443100477041794e-02 +7.4953861325075166e-01 -5.3526813780299483e+00 +1.1337700590897284e+03 +4.3330323756130470e+04 -4.1779554376664869e+06 
+2.3000000000000007e+00 -4.3025034315053418e-02 +9.1447487223216509e-02 +7.4769056406346579e-01 -5.4455302021373804e+00 +1.1679863245179147e+03 +4.3633674617742203e+04 -4.3434183059728378e+06 
+2.4000000000000008e+00 -4.3025068730751063e-02 +9.1449697753495984e-02 +7.4597537554718263e-01 -5.4972451930634643e+00 +1.1983180811052609e+03 +4.3778010858098525e+04 -4.4879761885202536e+06 
+2.5000000000000009e+00 -4.3025105791995012e-02 +9.1450049474688058e-02 +7.4439475801390120e-01 -5.5118230642701018e+00 +1.2251848636425889e+03 +4.3780031117393621e+04 -4.6142772883314090e+06 
+2.6000000000000010e+00 -4.3025145238227480e-02 +9.1448859799984669e-02 +7.4295042566702996e-01 -5.4932609014002853e+00 +1.2490061185699799e+03 +4.3656437009964400e+04 -4.7249693151451256e+06 
+2.7000000000000011e+00 -4.3025186808923858e-02 +9.1446446150010935e-02 +7.4164409640713491e-01 -5.4455562144841680e+00 +1.2702012065543131e+03 +4.3423933522208150e+04 -4.8226994908522656e+06 
+2.8000000000000012e+00 -4.3025230243600866e-02 +9.1443125953265522e-02 +7.4047749268334917e-01 -5.3727069715601905e+00 +1.2891893859238592e+03 +4.3099229299065533e+04 -4.9101144657949600e+06 
+2.9000000000000012e+00 -4.3025275281817675e-02 +9.1439216647139748e-02 +7.3945234164354856e-01 -5.2787116509446159e+00 +1.3063898083918234e+03 +4.2699037045840982e+04 -4.9898602909609657e+06 
+3.0000000000000013e+00 -4.3025321663184977e-02 +9.1435035678764570e-02 +7.3857037616748766e-01 -5.1675692885635796e+00 +1.3222214978163320e+03 +4.2240073856373543e+04 -5.0645823119793348e+06 
+3.1000000000000014e+00 -4.3025369205914682e-02 +9.1430837197959511e-02 +7.3784302699956494e-01 -5.0428083227640466e+00 +1.3368312870795446e+03 +4.1735663128663560e+04 -5.1356206344955694e+06 
+3.2000000000000015e+00 -4.3025417989784681e-02 +9.1426615645495243e-02 +7.3731468845144910e-01 -4.9057966372507851e+00 +1.3494158081116257e+03 +4.1184568796171174e+04 -5.1997542417739937e+06 
+3.3000000000000016e+00 -4.3025468147300273e-02 +9.1422299085949940e-02 +7.3703662465829523e-01 -4.7572997628875910e+00 +1.3589668308922583e+03 +4.0581698536868724e+04 -5.2527777320506675e+06 
+3.4000000000000017e+00 -4.3025519810936080e-02 +9.1417815564190028e-02 +7.3706009564731279e-01 -4.5980824782147440e+00 +1.3644762300405505e+03 +3.9921954970823848e+04 -5.2904862868549870e+06 
+3.5000000000000018e+00 -4.3025573113137976e-02 +9.1413093103545506e-02 +7.3743635757225767e-01 -4.4289087383243411e+00 +1.3649359826527111e+03 +3.9200235183049022e+04 -5.3086756693123300e+06 
+3.6000000000000019e+00 -4.3025628186318721e-02 +9.1408059704467276e-02 +7.3821666215298343e-01 -4.2505416193161434e+00 +1.3593381813209912e+03 +3.8411430335288846e+04 -5.3031422940732464e+06 
+3.7000000000000020e+00 -4.3025685162855674e-02 +9.1402643342857123e-02 +7.3945225630553491e-01 -4.0637432521704495e+00 +1.3466750440995822e+03 +3.7550425213994931e+04 -5.2696832846505567e+06 
+3.8000000000000020e+00 -4.3025744175089843e-02 +9.1396771968371399e-02 +7.4119438204936994e-01 -3.8692747566863468e+00 +1.3259389183397618e+03 +3.6612097780170719e+04 -5.2040964989360794e+06 
+3.9000000000000021e+00 -4.3025805355319559e-02 +9.1390373503211150e-02 +7.4349427565914117e-01 -3.6678961896932814e+00 +1.2961222995875489e+03 +3.5591318803195885e+04 -5.1021806285052123e+06 
+4.0000000000000018e+00 -4.3025868835800750e-02 +9.1383375839658124e-02 +7.4640316758252323e-01 -3.4603664653764361e+00 +1.2562178355370843e+03 +3.4482951449445456e+04 -4.9597352165841237e+06 
+4.1000000000000014e+00 -4.3025934503240722e-02 +9.1375749045187971e-02 +7.4993142313973260e-01 -3.2478648128279852e+00 +1.2058656135741844e+03 +3.3287524675591303e+04 -4.7750621563276593e+06 
+4.2000000000000011e+00 -4.3026001310278943e-02 +9.1367645971987752e-02 +7.5393125244215309e-01 -3.0332227898357784e+00 +1.1471715711365007e+03 +3.2026590874046866e+04 -4.5559760190146500e+06 
+4.3000000000000007e+00 -4.3026067987113732e-02 +9.1359268531328280e-02 +7.5821648753127302e-01 -2.8196721900312314e+00 +1.0828298313445050e+03 +3.0726557619812000e+04 -4.3125558182873046e+06 
+4.4000000000000004e+00 -4.3026133263973108e-02 +9.1350818679486426e-02 +7.6260096281409961e-01 -2.6104461056943724e+00 +1.0155344718405400e+03 +2.9413839922332809e+04 -4.0548803932397277e+06 
+4.5000000000000000e+00 -4.3026195871114781e-02 +9.1342498420595844e-02 +7.6689851497446881e-01 -2.4087790203914579e+00 +9.4797952746764440e+02 +2.8114860717486230e+04 -3.7930284210490002e+06 
+4.5999999999999996e+00 -4.3026254538832756e-02 +9.1334509809837261e-02 +7.7092298376206492e-01 -2.2179069038710928e+00 +8.8285897475826005e+02 +2.6856051417534160e+04 -3.5370783438997846e+06 
+4.6999999999999993e+00 -4.3026307997455750e-02 +9.1327054956219261e-02 +7.7448821171378801e-01 -2.0410672954386655e+00 +8.2286673683192294e+02 +2.5663852396322549e+04 -3.2971083933471772e+06 
+4.7999999999999989e+00 -4.3026354977350065e-02 +9.1320336025257881e-02 +7.7740804440365097e-01 -1.8814993839372158e+00 +7.7069667880638258e+02 +2.4564713452766911e+04 -3.0831965711604906e+06 
+4.8999999999999986e+00 -4.3026394208922097e-02 +9.1314555242206719e-02 +7.7949633073418223e-01 -1.7424441038009568e+00 +7.2904260140210204e+02 +2.3585094367818532e+04 -2.9054206185982269e+06 
+4.9999999999999982e+00 -4.3026424422621001e-02 +9.1309914894598887e-02 +7.8056692316782506e-01 -1.6271441836020590e+00 +7.0059823976346206e+02 +2.2751465066439549e+04 -2.7738580286044087e+06 
+5.0999999999999979e+00 -4.3026444837116241e-02 +9.1306569560364315e-02 +7.8049578157779553e-01 -1.5381188386974394e+00 +6.8720499040394259e+02 +2.2084839516293458e+04 -2.6954740403582379e+06 
+5.1999999999999975e+00 -4.3026456620466162e-02 +9.1304468063318850e-02 +7.7940894927080984e-01 -1.4754998953703056e+00 +6.8727632722815633e+02 +2.1588913232157782e+04 -2.6646231434789100e+06 
+5.2999999999999972e+00 -4.3026461428304782e-02 +9.1303503956089993e-02 +7.7749560027387032e-01 -1.4389479602614998e+00 +6.9836225831242621e+02 +2.1264135327428598e+04 -2.6724626577298800e+06 
+5.3999999999999968e+00 -4.3026460916288055e-02 +9.1303570746815763e-02 +7.7494491485149231e-01 -1.4281225938659925e+00 +7.1801264199105003e+02 +2.1110949586154242e+04 -2.7101490490562902e+06 
+5.4999999999999964e+00 -4.3026456740095746e-02 +9.1304561897215586e-02 +7.7194607981205188e-01 -1.4426822422147432e+00 +7.4377717624790205e+02 +2.1129794191760622e+04 -2.7688378734068745e+06 
+5.5999999999999961e+00 -4.3026450555429696e-02 +9.1306370820085039e-02 +7.6868828849071102e-01 -1.4822841748804443e+00 +7.7320539714768529e+02 +2.1321101409394971e+04 -2.8396837615489191e+06 
+5.6999999999999957e+00 -4.3026444018016571e-02 +9.1308890876642720e-02 +7.6536074126099396e-01 -1.5465844190963194e+00 +8.0384666730854417e+02 +2.1685297246673472e+04 -2.9138403565123752e+06 
+5.7999999999999954e+00 -4.3026438783607332e-02 +9.1312015374217112e-02 +7.6215264562696383e-01 -1.6352377045887661e+00 +8.3325017262560323e+02 +2.2222801179722581e+04 -2.9824602912816750e+06 
+5.8999999999999950e+00 -4.3026436507978230e-02 +9.1315637563906996e-02 +7.5925321653443567e-01 -1.7478974064997688e+00 +8.5896491445830839e+02 +2.2934025863918967e+04 -3.0366951437227726e+06 
+5.9999999999999947e+00 -4.3026438846933537e-02 +9.1319650637408961e-02 +7.5685167687435284e-01 -1.8842154709849321e+00 +8.7853969700944833e+02 +2.3819376637034504e+04 -3.0676953758706646e+06 
+6.0999999999999943e+00 -4.3026447247899710e-02 +9.1323946378340362e-02 +7.5509254460651287e-01 -2.0429188820211008e+00 +8.9019265028926395e+02 +2.4871805658657533e+04 -3.0693641345809479e+06 
+6.1999999999999940e+00 -4.3026462278880288e-02 +9.1328438176055002e-02 +7.5393488317461355e-01 -2.2190025237679478e+00 +8.9490350781684003e+02 +2.6053768427489966e+04 -3.0468810571422107e+06 
+6.2999999999999936e+00 -4.3026484275636948e-02 +9.1333051680721394e-02 +7.5328951811779810e-01 -2.4065115816845979e+00 +8.9436592364844978e+02 +2.7319856190119539e+04 -3.0083214976334884e+06 
+6.3999999999999932e+00 -4.3026513573845640e-02 +9.1337712558439130e-02 +7.5306725872714919e-01 -2.5994918421684337e+00 +8.9027390804739116e+02 +2.8624664650250859e+04 -2.9617626521763685e+06 
+6.4999999999999929e+00 -4.3026550509097969e-02 +9.1342346491375667e-02 +7.5317889818019346e-01 -2.7919897458957514e+00 +8.8432183200117152e+02 +2.9922794272992473e+04 -2.9152835909798616e+06 
+6.5999999999999925e+00 -4.3026595416897628e-02 +9.1346879178309984e-02 +7.5353521287131231e-01 -2.9780524093982272e+00 +8.7820444204809382e+02 +3.1168850441395749e+04 -2.8769653350438140e+06 
+6.6999999999999922e+00 -4.3026648632658177e-02 +9.1351236335650468e-02 +7.5404696189479370e-01 -3.1517276599640440e+00 +8.7361687250392629e+02 +3.2317443690731652e+04 -2.8548909213490286e+06 
+6.7999999999999918e+00 -4.3026710491697484e-02 +9.1355343698263564e-02 +7.5462488611850487e-01 -3.3070640658049544e+00 +8.7225466534419309e+02 +3.3323189916745803e+04 -2.8571455042382614e+06 
+6.8999999999999915e+00 -4.3026781329235340e-02 +9.1359127019749062e-02 +7.5517970767072751e-01 -3.4381109489221249e+00 +8.7581378205504541e+02 +3.4140710479893518e+04 -2.8918164178745816e+06 
+6.9999999999999911e+00 -4.3026861480390435e-02 +9.1362512078011035e-02 +7.5562212984935373e-01 -3.5389186095225140e+00 +8.8599059790695583e+02 +3.4724633835669440e+04 -2.9669931115348940e+06 
+7.0999999999999908e+00 -4.3026950899892003e-02 +9.1365463113972700e-02 +7.5588508409356003e-01 -3.6058670257955718e+00 +9.0388228556064473e+02 +3.5046742640762168e+04 -3.0875872970558447e+06 
+7.1999999999999904e+00 -4.3027048091617566e-02 +9.1368025011395654e-02 +7.5599871119105755e-01 -3.6429695860729674e+00 +9.2811283543898605e+02 +3.5138240629296321e+04 -3.2457532867479892e+06 
+7.2999999999999901e+00 -4.3027151215988747e-02 +9.1370244643907056e-02 +7.5602002214174457e-01 -3.6557515596483254e+00 +9.5665829520230841e+02 +3.5043107419229695e+04 -3.4303898863390405e+06 
+7.3999999999999897e+00 -4.3027258433522134e-02 +9.1372168869743156e-02 +7.5600604686468476e-01 -3.6497370041615116e+00 +9.8749429334409888e+02 +3.4805312649861262e+04 -3.6303937439695774e+06 
+7.4999999999999893e+00 -4.3027367904820368e-02 +9.1373844534285820e-02 +7.5601383267490885e-01 -3.6304487606379432e+00 +1.0185960644643314e+03 +3.4468815701011059e+04 -3.8346594547436624e+06 
+7.5999999999999890e+00 -4.3027477790574614e-02 +9.1375318470409000e-02 +7.5610044482037408e-01 -3.6034084343733386e+00 +1.0479384369353152e+03 +3.4077565470550369e+04 -4.0320794961587046e+06 
+7.6999999999999886e+00 -4.3027586251569931e-02 +9.1376637497463872e-02 +7.5632296740986160e-01 -3.5741363351188600e+00 +1.0734958128795979e+03 +3.3675499911277082e+04 -4.2115441260995846e+06 
+7.7999999999999883e+00 -4.3027691448688142e-02 +9.1377848420930663e-02 +7.5673850401054477e-01 -3.5481514379382704e+00 +1.0932421544222957e+03 +3.3306545691752093e+04 -4.3619413106885701e+06 
+7.8999999999999879e+00 -4.3027791542908651e-02 +9.1378998032352096e-02 +7.5740417798683035e-01 -3.5309713513980245e+00 +1.1051509752430441e+03 +3.3014617898727607e+04 -4.4721566785106892e+06 
+7.9999999999999876e+00 -4.3027884695308209e-02 +9.1380133101223657e-02 +7.5837713164409359e-01 -3.5281119991595369e+00 +1.1071953692658981e+03 +3.2843618147918998e+04 -4.5310736768903015e+06 
+8.0999999999999872e+00 -4.3027969465710032e-02 +9.1381266033178823e-02 +7.5968667101785115e-01 -3.5430291567054071e+00 +1.0981092714668664e+03 +3.2823354462710784e+04 -4.5314134173252257e+06 
+8.1999999999999869e+00 -4.3028045960999906e-02 +9.1382368318811816e-02 +7.6124544442831343e-01 -3.5732025176874993e+00 +1.0796866861426365e+03 +3.2937548500353594e+04 -4.4810545824160380e+06 
+8.2999999999999865e+00 -4.3028114659469367e-02 +9.1383425136078639e-02 +7.6293472588049360e-01 -3.6151537565575782e+00 +1.0545096928362523e+03 +3.3160730647933662e+04 -4.3917056650824295e+06 
+8.3999999999999861e+00 -4.3028176039342544e-02 +9.1384421727554691e-02 +7.6463577538396432e-01 -3.6654071159645558e+00 +1.0251606687943763e+03 +3.3467448058774520e+04 -4.2750766380351083e+06 
+8.4999999999999858e+00 -4.3028230578791071e-02 +9.1385343396395244e-02 +7.6622984174177766e-01 -3.7204893914812103e+00 +9.9422223756209939e+02 +3.3832265119646021e+04 -4.1428787447100678e+06 
+8.5999999999999854e+00 -4.3028278755934020e-02 +9.1386175508331016e-02 +7.6759816239334144e-01 -3.7769300153087957e+00 +9.6427727284731338e+02 +3.4229764017383466e+04 -4.0068245202655173e+06 
+8.6999999999999851e+00 -4.3028321048835395e-02 +9.1386903493080582e-02 +7.6862196295452667e-01 -3.8312611239185306e+00 +9.3790890853787585e+02 +3.4634545212853540e+04 -3.8786278431495777e+06 
+8.7999999999999847e+00 -4.3028357935504469e-02 +9.1387512846436383e-02 +7.6918245709618660e-01 -3.8800176427233550e+00 +9.1770054215867776e+02 +3.5021228008709193e+04 -3.7700039548933487e+06 
+8.8999999999999844e+00 -4.3028389893890413e-02 +9.1387989132132474e-02 +7.6916084573014842e-01 -3.9197373675568845e+00 +9.0623585143064474e+02 +3.5364451105869237e+04 -3.6926695421848455e+06 
+8.9999999999999840e+00 -4.3028417401899721e-02 +9.1388317989710144e-02 +7.6843832023957914e-01 -3.9469611422024973e+00 +9.0609873093130579e+02 +3.5638872705577087e+04 -3.6583425075554606e+06 
+9.0999999999999837e+00 -4.3028441063771170e-02 +9.1388489317516225e-02 +7.6694826490955759e-01 -3.9588123572320852e+00 +9.1889608632911063e+02 +3.5821658125913826e+04 -3.6746189513291088e+06 
+9.1999999999999833e+00 -4.3028461964402680e-02 +9.1388436299510503e-02 +7.6482976854235496e-01 -3.9536952177051705e+00 +9.4243170723288574e+02 +3.5899472228330640e+04 -3.7331443736045179e+06 
+9.2999999999999829e+00 -4.3028481307741652e-02 +9.1388059899611143e-02 +7.6227363754464106e-01 -3.9300966941999009e+00 +9.7356567125037111e+02 +3.5861350531270553e+04 -3.8216379569730926e+06 
+9.3999999999999826e+00 -4.3028500297710860e-02 +9.1387260971875925e-02 +7.5947067723912265e-01 -3.8865002497164727e+00 +1.0091580931648778e+03 +3.5696308245616674e+04 -3.9278191361722457e+06 
+9.4999999999999822e+00 -4.3028520138187365e-02 +9.1385940261828419e-02 +7.5661168830817016e-01 -3.8213857173114603e+00 +1.0460691835989464e+03 +3.5393338758081300e+04 -4.0394078047065903e+06 
+9.5999999999999819e+00 -4.3028542033000057e-02 +9.1383998403585964e-02 +7.5388746649623695e-01 -3.7332292050126465e+00 +1.0811592550429023e+03 +3.4941413063088155e+04 -4.1441243440530426e+06 
+9.6999999999999815e+00 -4.3028567185929199e-02 +9.1381335916728909e-02 +7.5148880259951922e-01 -3.6205029898085912e+00 +1.1112887220801260e+03 +3.4329479120496602e+04 -4.2296896243651751e+06 
+9.7999999999999812e+00 -4.3028596800707253e-02 +9.1377853203182341e-02 +7.4960648260725726e-01 -3.4816754144432487e+00 +1.1333180989403247e+03 +3.3546461237033494e+04 -4.2838249929632489e+06 
+9.8999999999999808e+00 -4.3028632081014366e-02 +9.1373450544552856e-02 +7.4843128715607776e-01 -3.3152107960127379e+00 +1.1441080100971774e+03 +3.2581259512212480e+04 -4.2942523248583488e+06 
+9.9999999999999805e+00 -4.3028674230453631e-02 +9.1368028096460788e-02 +7.4815398749788897e-01 -3.1195695230588614e+00 +1.1405192478666947e+03 +3.1422752619701168e+04 -4.2486940880603623e+06 
+1.0099999999999980e+01 -4.3028723934384019e-02 +9.1361534893589877e-02 +7.4889691142846948e-01 -2.8949019875676227e+00 +1.1205339843488582e+03 +3.0073263244038357e+04 -4.1392292424108745e+06 
