# multipoles
# s[mm] polynom_b[n=0][T/m^n] polynom_b[n=1][T/m^n] polynom_b[n=2][T/m^n] polynom_b[n=3][T/m^n] polynom_b[n=4][T/m^n] polynom_b[n=5][T/m^n] polynom_b[n=6][T/m^n] 
+0.0000000000000000e+00 -7.6526953157427946e-01 +1.6418149477718966e+00 +1.4470042037077887e+01 +3.7983126101991822e+01 +2.2503121958578845e+03 +9.6829397784087108e+04 +6.6909551765747787e+05 
+1.0000000000000001e-01 -7.6526953167802947e-01 +1.6418144348387089e+00 +1.4470650917092012e+01 +3.8003148979958098e+01 +2.2334497394492250e+03 +9.6640521138894139e+04 +7.5763541086401965e+05 
+2.0000000000000001e-01 -7.6526953139469134e-01 +1.6418131143577124e+00 +1.4472275770944689e+01 +3.8055842769665261e+01 +2.1878502915787562e+03 +9.6138930447017119e+04 +9.9765044870207296e+05 
+3.0000000000000004e-01 -7.6526952983239727e-01 +1.6418113138136783e+00 +1.4474613919225472e+01 +3.8130145109651615e+01 +2.1209957592398287e+03 +9.5422184839821377e+04 +1.3507334703610055e+06 
+4.0000000000000002e-01 -7.6526952609924703e-01 +1.6418093606937851e+00 +1.4477362679304077e+01 +3.8214993645113772e+01 +2.0403681160352667e+03 +9.4587843181024975e+04 +1.7784769675459825e+06 
+5.0000000000000000e-01 -7.6526951930332177e-01 +1.6418075824796630e+00 +1.4480219365860364e+01 +3.8299326241693258e+01 +1.9534493849113644e+03 +9.3733462856048078e+04 +2.2424732075593262e+06 
+5.9999999999999998e-01 -7.6526950855277187e-01 +1.6418063066588429e+00 +1.4482881303128858e+01 +3.8372080603755059e+01 +1.8677213901934397e+03 +9.2956602104591730e+04 +2.7043154706285167e+06 
+6.9999999999999996e-01 -7.6526949295577340e-01 +1.6418058607127028e+00 +1.4485045820276255e+01 +3.8422194600237624e+01 +1.7906658302169992e+03 +9.2354818167523292e+04 +3.1255977615557523e+06 
+7.9999999999999993e-01 -7.6526947162055337e-01 +1.6418065721217261e+00 +1.4486410255052309e+01 +3.8438606077030890e+01 +1.7297641931056546e+03 +9.2025668456980842e+04 +3.4679152701010909e+06 
+8.9999999999999991e-01 -7.6526944365545624e-01 +1.6418087683671736e+00 +1.4486671962554727e+01 +3.8410252772385597e+01 +1.6924975788536206e+03 +9.2066711132408818e+04 +3.6928652636217242e+06 
+9.9999999999999989e-01 -7.6526940816888189e-01 +1.6418127769191266e+00 +1.4485528308581994e+01 +3.8326072627690714e+01 +1.6863468085710292e+03 +9.2575503348986807e+04 +3.7620466317388173e+06 
+1.0999999999999999e+00 -7.6526936490923914e-01 +1.6418188239550251e+00 +1.4482790849439301e+01 +3.8177573538532201e+01 +1.7162124127506397e+03 +9.3624422790681099e+04 +3.6500323318478521e+06 
+1.2000000000000000e+00 -7.6526931614443783e-01 +1.6418267049443831e+00 +1.4478723113741431e+01 +3.7967409829098223e+01 +1.7767657469645678e+03 +9.5180322077863588e+04 +3.3829505752506698e+06 
+1.3000000000000000e+00 -7.6526926476245261e-01 +1.6418361013175669e+00 +1.4473700484162514e+01 +3.7701238707868804e+01 +1.8601424929453306e+03 +9.7182465105480267e+04 +2.9997402500005863e+06 
+1.4000000000000001e+00 -7.6526921365112810e-01 +1.6418466945078292e+00 +1.4468098325258834e+01 +3.7384717263382015e+01 +1.9584787254740907e+03 +9.9570116658715880e+04 +2.5393381646786188e+06 
+1.5000000000000002e+00 -7.6526916569827974e-01 +1.6418581659468956e+00 +1.4462291995125510e+01 +3.7023502586049894e+01 +2.0639107069914367e+03 +1.0228254177231947e+05 +2.0406799596226467e+06 
+1.6000000000000003e+00 -7.6526912379162348e-01 +1.6418701970653544e+00 +1.4456656836796075e+01 +3.6623251738620191e+01 +2.1685750663448162e+03 +1.0525900597039594e+05 +1.5426991910444822e+06 
+1.7000000000000004e+00 -7.6526909081878136e-01 +1.6418824693022949e+00 +1.4451568177004948e+01 +3.6189621519811062e+01 +2.2646088411565233e+03 +1.0843877656370505e+05 +1.0843270572507123e+06 
+1.8000000000000005e+00 -7.6526906966723041e-01 +1.6418946640921035e+00 +1.4447401320179264e+01 +3.5728268800002873e+01 +2.3441496022945985e+03 +1.1176112086102692e+05 +7.0449175652636471e+05 
+1.9000000000000006e+00 -7.6526906322432575e-01 +1.6419064628725379e+00 +1.4444531549859935e+01 +3.5244850325446251e+01 +2.3993354493280904e+03 +1.1516530723491094e+05 +4.4211842506467708e+05 
+2.0000000000000004e+00 -7.6526907437723346e-01 +1.6419175470870078e+00 +1.4443334120358635e+01 +3.4745022629162996e+01 +2.4223051799822956e+03 +1.1859060576804503e+05 +3.3612828053401655e+05 
+2.1000000000000005e+00 -7.6526910504893830e-01 +1.6419276332607882e+00 +1.4444066706930696e+01 +3.4236305143492579e+01 +2.4076498077401925e+03 +1.2197058642844485e+05 +4.1330295608859987e+05 
+2.2000000000000006e+00 -7.6526915336818702e-01 +1.6419366189996387e+00 +1.4446524804067330e+01 +3.3732261199495994e+01 +2.3595581595423878e+03 +1.2522423429831867e+05 +6.5284463488337491e+05 
+2.3000000000000007e+00 -7.6526921653059909e-01 +1.6419444571420434e+00 +1.4450390317960633e+01 +3.3247621723011655e+01 +2.2845680234683196e+03 +1.2826891734060259e+05 +1.0222924707861564e+06 
+2.4000000000000008e+00 -7.6526929173176117e-01 +1.6419511005429177e+00 +1.4455345152378134e+01 +3.2797117110694280e+01 +2.1892171440465258e+03 +1.3102200690827525e+05 +1.4891862528881042e+06 
+2.5000000000000009e+00 -7.6526937616734259e-01 +1.6419565020555180e+00 +1.4461071223052562e+01 +3.2395477737149172e+01 +2.0800429415176141e+03 +1.3340087482614600e+05 +2.0210677881850575e+06 
+2.6000000000000010e+00 -7.6526946703308207e-01 +1.6419606145417116e+00 +1.4467250456870538e+01 +3.2057433656898915e+01 +1.9635825095940643e+03 +1.3532289513254850e+05 +2.5854809866852961e+06 
+2.7000000000000011e+00 -7.6526956152476122e-01 +1.6419633908784352e+00 +1.4473564788402369e+01 +3.1797714429334395e+01 +1.8463726705366055e+03 +1.3670544505620818e+05 +3.1499716554305968e+06 
+2.8000000000000012e+00 -7.6526965683826620e-01 +1.6419647839412901e+00 +1.4479696168064491e+01 +3.1631049584166160e+01 +1.7349498040324479e+03 +1.3746590235445616e+05 +3.6820883842300498e+06 
+2.9000000000000012e+00 -7.6526975016953047e-01 +1.6419647466225902e+00 +1.4485326556239384e+01 +3.1572168086407526e+01 +1.6358499437024623e+03 +1.3752164845496046e+05 +4.1493821497815885e+06 
+3.0000000000000013e+00 -7.6526983871461773e-01 +1.6419632318246360e+00 +1.4490137932279424e+01 +3.1635798533890011e+01 +1.5556085959419097e+03 +1.3679006721597505e+05 +4.5194072316877581e+06 
+3.1000000000000014e+00 -7.6526992031705521e-01 +1.6419602550862453e+00 +1.4493888309333686e+01 +3.1829580220721414e+01 +1.4990605229008504e+03 +1.3523241394543363e+05 +4.7684350061882921e+06 
+3.2000000000000015e+00 -7.6526999540475793e-01 +1.6419560380350744e+00 +1.4496637487009989e+01 +3.2134498479686854e+01 +1.4644429526349463e+03 +1.3297520158575007e+05 +4.9063504309578575e+06 
+3.3000000000000016e+00 -7.6527006505142448e-01 +1.6419508432197578e+00 +1.4498520350180055e+01 +3.2525272402927349e+01 +1.4483891492258776e+03 +1.3018384916734498e+05 +4.9511608850529026e+06 
+3.4000000000000017e+00 -7.6527013033074043e-01 +1.6419449331660869e+00 +1.4499671783942377e+01 +3.2976622141955566e+01 +1.4475324313430426e+03 +1.2702376729672657e+05 +4.9208731530649886e+06 
+3.5000000000000018e+00 -7.6527019231647464e-01 +1.6419385703734388e+00 +1.4500226685540467e+01 +3.3463269078358209e+01 +1.4585059474789143e+03 +1.2366035693010232e+05 +4.8334944699540595e+06 
+3.6000000000000019e+00 -7.6527025208237165e-01 +1.6419320173131680e+00 +1.4500319952584361e+01 +3.3959935884310482e+01 +1.4779428999938675e+03 +1.2025900889725213e+05 +4.7070314311185945e+06 
+3.7000000000000020e+00 -7.6527031070230322e-01 +1.6419255364281464e+00 +1.4500086500514838e+01 +3.4441346572746312e+01 +1.5024762273264819e+03 +1.1698510343481600e+05 +4.5594914524033442e+06 
+3.8000000000000020e+00 -7.6527036925012082e-01 +1.6419193901290108e+00 +1.4499661244596894e+01 +3.4882226655473922e+01 +1.5287389524205876e+03 +1.1400400901113819e+05 +4.4088810742052151e+06 
+3.9000000000000021e+00 -7.6527042879977458e-01 +1.6419138407914045e+00 +1.4499179116081599e+01 +3.5257303233741929e+01 +1.5533638729271529e+03 +1.1148108171177981e+05 +4.2732074242869793e+06 
+4.0000000000000018e+00 -7.6527049042521866e-01 +1.6419091507562300e+00 +1.4498775048811218e+01 +3.5541305103329165e+01 +1.5729838410096568e+03 +1.0958166433288807e+05 +4.1704768057854357e+06 
+4.1000000000000014e+00 -7.6527055499116237e-01 +1.6419054831576927e+00 +1.4498566877148422e+01 +3.5717227979579789e+01 +1.5848732202762724e+03 +1.0841703352754249e+05 +4.1146952371689421e+06 
+4.2000000000000011e+00 -7.6527062238763788e-01 +1.6419026349183714e+00 +1.4498587995381159e+01 +3.5799470859424751e+01 +1.5889723478077640e+03 +1.0789335656775501e+05 +4.1038436882987963e+06 
+4.3000000000000007e+00 -7.6527069222476085e-01 +1.6419003188034036e+00 +1.4498846350520418e+01 +3.5809901005859608e+01 +1.5859219531193251e+03 +1.0786811233766621e+05 +4.1318399491671175e+06 
+4.4000000000000004e+00 -7.6527076411245953e-01 +1.6418982476121478e+00 +1.4499349859273837e+01 +3.5770383997710383e+01 +1.5763633657191374e+03 +1.0819879423800678e+05 +4.1925988968836553e+06 
+4.5000000000000000e+00 -7.6527083766056936e-01 +1.6418961341784506e+00 +1.4500106419803533e+01 +3.5702783680659174e+01 +1.5609382962340517e+03 +1.0874291064296925e+05 +4.2800335331768226e+06 
+4.5999999999999996e+00 -7.6527091247873913e-01 +1.6418936913671456e+00 +1.4501123899572125e+01 +3.5628962243595332e+01 +1.5402890705494453e+03 +1.0935798470258694e+05 +4.3880538624618677e+06 
+4.6999999999999993e+00 -7.6527098817644357e-01 +1.6418906320852629e+00 +1.4502410137018428e+01 +3.5570779811494418e+01 +1.5150585907356549e+03 +1.0990155711026957e+05 +4.5105671022177739e+06 
+4.7999999999999989e+00 -7.6527106436300352e-01 +1.6418866692722416e+00 +1.4503972942745364e+01 +3.5550094700352290e+01 +1.4858903237126292e+03 +1.1023118486859665e+05 +4.6414777073625345e+06 
+4.8999999999999986e+00 -7.6527114064754598e-01 +1.6418815159160791e+00 +1.4505820094508536e+01 +3.5588762906067089e+01 +1.4534283937440048e+03 +1.1020444455461929e+05 +4.7746869405389419e+06 
+4.9999999999999982e+00 -7.6527121663898445e-01 +1.6418748850469631e+00 +1.4507959335480619e+01 +3.5708638123026354e+01 +1.4183175954417450e+03 +1.0967893274309594e+05 +4.9040928684238987e+06 
+5.0999999999999979e+00 -7.6527129175123854e-01 +1.6418666042979060e+00 +1.4510363329131232e+01 +3.5924038726701376e+01 +1.3814618566878387e+03 +1.0856037812379251e+05 +5.0238957269694973e+06 
+5.1999999999999975e+00 -7.6527136489328673e-01 +1.6418569458535217e+00 +1.4512898281681274e+01 +3.6220948955708295e+01 +1.3443457885148209e+03 +1.0693194708062854e+05 +5.1313000260220170e+06 
+5.2999999999999972e+00 -7.6527143491906646e-01 +1.6418462889313636e+00 +1.4515412630253271e+01 +3.6578711330413157e+01 +1.3084734008273228e+03 +1.0491743586839944e+05 +5.2247858971617948e+06 
+5.3999999999999968e+00 -7.6527150068268901e-01 +1.6418350127287269e+00 +1.4517754843806911e+01 +3.6976670106136474e+01 +1.2753480166167201e+03 +1.0264062235155032e+05 +5.3028371089637326e+06 
+5.4999999999999964e+00 -7.6527156103851957e-01 +1.6418234964269980e+00 +1.4519773431450711e+01 +3.7394171166630045e+01 +1.2464721227779207e+03 +1.0022526663817551e+05 +5.3639417343459809e+06 
+5.5999999999999961e+00 -7.6527161484116457e-01 +1.6418121191946988e+00 +1.4521316942278720e+01 +3.7810561987203471e+01 +1.2233473665141403e+03 +9.7795110898666229e+04 +5.4065921865749909e+06 
+5.6999999999999957e+00 -7.6527166094548826e-01 +1.6418012601772192e+00 +1.4522233967403832e+01 +3.8205191999919336e+01 +1.2074745158182602e+03 +9.5473876824889710e+04 +5.4292854176463392e+06 
+5.7999999999999954e+00 -7.6527169820660002e-01 +1.6417912985069749e+00 +1.4522373139115652e+01 +3.8557412347194486e+01 +1.2003534677482514e+03 +9.3385266660969559e+04 +5.4305229075032845e+06 
+5.8999999999999950e+00 -7.6527172547990097e-01 +1.6417826132930404e+00 +1.4521583136662166e+01 +3.8846576241787112e+01 +1.2034831406108149e+03 +9.1652960717711467e+04 +5.4088111749942927e+06 
+5.9999999999999947e+00 -7.6527174162107103e-01 +1.6417755836229480e+00 +1.4519712686532564e+01 +3.9052039129303814e+01 +1.2183614740782734e+03 +9.0400615724530711e+04 +5.3626617654373618e+06 
+6.0999999999999943e+00 -7.6527174641713536e-01 +1.6417704635877379e+00 +1.4516693904114417e+01 +3.9159626679412057e+01 +1.2455340456304070e+03 +8.9713506086810637e+04 +5.2929779742869772e+06 
+6.1999999999999940e+00 -7.6527174305310675e-01 +1.6417670264800699e+00 +1.4512752759606400e+01 +3.9178543926688604e+01 +1.2823395130234294e+03 +8.9544664500768180e+04 +5.2075339576963475e+06 
+6.2999999999999936e+00 -7.6527173547943994e-01 +1.6417649316274965e+00 +1.4508178381654913e+01 +3.9123195244245586e+01 +1.3254801180917141e+03 +8.9819587906017783e+04 +5.1150445413824627e+06 
+6.3999999999999932e+00 -7.6527172764636742e-01 +1.6417638383973145e+00 +1.4503259865015837e+01 +3.9007981828720226e+01 +1.3716588429205292e+03 +9.0463804441306231e+04 +5.0242204621799896e+06 
+6.4999999999999929e+00 -7.6527172350384187e-01 +1.6417634061761026e+00 +1.4498286264168447e+01 +3.8847302298638496e+01 +1.4175795143313583e+03 +9.1402869569846618e+04 +4.9437679803205831e+06 
+6.5999999999999925e+00 -7.6527172700158430e-01 +1.6417632943839373e+00 +1.4493546599247889e+01 +3.8655552240681310e+01 +1.4599466950893736e+03 +9.2562369099499309e+04 +4.8823893752647331e+06 
+6.6999999999999922e+00 -7.6527174208902682e-01 +1.6417631624645919e+00 +1.4489329848892599e+01 +3.8447124389831245e+01 +1.4954658193275125e+03 +9.3867918717300636e+04 +4.8487822942677792e+06 
+6.7999999999999918e+00 -7.6527177271534141e-01 +1.6417626698878185e+00 +1.4485924952719040e+01 +3.8236408480289242e+01 +1.5208431560051940e+03 +9.5245165352066848e+04 +4.8516398879834237e+06 
+6.8999999999999915e+00 -7.6527182282941686e-01 +1.6417614761597916e+00 +1.4483620810150033e+01 +3.8037790865828441e+01 +1.5327858219283835e+03 +9.6619789885751365e+04 +4.8996507623267397e+06 
+6.9999999999999911e+00 -7.6527189637978077e-01 +1.6417592408071098e+00 +1.4482706267194999e+01 +3.7865654849064711e+01 +1.5280020478649928e+03 +9.7917505517599071e+04 +5.0014976383604072e+06 
+7.0999999999999908e+00 -7.6527199578529270e-01 +1.6417557436421168e+00 +1.4483363072270169e+01 +3.7730347946040226e+01 +1.5046244128642584e+03 +9.9083481827896132e+04 +5.1607517436862560e+06 
+7.1999999999999904e+00 -7.6527211768468761e-01 +1.6417512287891569e+00 +1.4485385005112835e+01 +3.7627839179963182e+01 +1.4657549649239677e+03 +1.0012635716702156e+05 +5.3642217169018323e+06 
+7.2999999999999901e+00 -7.6527225735700566e-01 +1.6417460496266638e+00 +1.4488479135996704e+01 +3.7551023978274756e+01 +1.4155468256491904e+03 +1.0106640610648865e+05 +5.5955161657204982e+06 
+7.3999999999999897e+00 -7.6527241008166780e-01 +1.6417405594374979e+00 +1.4492352585435075e+01 +3.7492802806483041e+01 +1.3581519918668607e+03 +1.0192386132588667e+05 +5.8382500900327796e+06 
+7.4999999999999893e+00 -7.6527257113839187e-01 +1.6417351114187464e+00 +1.4496712512692268e+01 +3.7446080799120345e+01 +1.2977215855156442e+03 +1.0271891656703668e+05 +6.0760435254598297e+06 
+7.5999999999999890e+00 -7.6527273580729371e-01 +1.6417300586745618e+00 +1.4501266127989489e+01 +3.7403768017292606e+01 +1.2384056152360615e+03 +1.0347172480151871e+05 +6.2925227184079504e+06 
+7.6999999999999886e+00 -7.6527289936879273e-01 +1.6417257542218753e+00 +1.4505720680705736e+01 +3.7358779396666897e+01 +1.1843531981214371e+03 +1.0420239799712632e+05 +6.4713190926220501e+06 
+7.7999999999999883e+00 -7.6527305710374427e-01 +1.6417225509795603e+00 +1.4509783476290814e+01 +3.7304035106844864e+01 +1.1397122296138791e+03 +1.0493100468607225e+05 +6.5960708620699728e+06 
+7.8999999999999879e+00 -7.6527320429333900e-01 +1.6417208017663805e+00 +1.4513161863323155e+01 +3.7232460709345368e+01 +1.1086296293237949e+03 +1.0567756857849816e+05 +6.6504218783096951e+06 
+7.9999999999999876e+00 -7.6527333621924809e-01 +1.6417208593268222e+00 +1.4515563254748997e+01 +3.7136986252791637e+01 +1.0952508826461913e+03 +1.0646207456540415e+05 +6.6180240527519723e+06 
+8.0999999999999872e+00 -7.6527344946001696e-01 +1.6417229519565466e+00 +1.4516773923492668e+01 +3.7013102810021856e+01 +1.1023555470713034e+03 +1.0729586876257249e+05 +6.4890072942486992e+06 
+8.1999999999999869e+00 -7.6527354544676984e-01 +1.6417267873162238e+00 +1.4516857481368266e+01 +3.6868117536793122e+01 +1.1280176356203208e+03 +1.0814449843649032e+05 +6.2753968339268705e+06 
+8.2999999999999865e+00 -7.6527362674456723e-01 +1.6417319401740269e+00 +1.4515938059197232e+01 +3.6712578807615898e+01 +1.1693054266656056e+03 +1.0896006249784782e+05 +5.9937940319255730e+06 
+8.3999999999999861e+00 -7.6527369591796435e-01 +1.6417379854804195e+00 +1.4514139717647781e+01 +3.6557028349024712e+01 +1.2232887262134643e+03 +1.0969470572066467e+05 +5.6607918846309073e+06 
+8.4999999999999858e+00 -7.6527375553110422e-01 +1.6417444983537306e+00 +1.4511586460447221e+01 +3.6412001626308850e+01 +1.2870386126972942e+03 +1.1030061602349054e+05 +5.2929762910981020e+06 
+8.5999999999999854e+00 -7.6527380814770274e-01 +1.6417510540880258e+00 +1.4508402230917445e+01 +3.6288027577993496e+01 +1.3576275176466315e+03 +1.1073002621087205e+05 +4.9069256134576350e+06 
+8.6999999999999851e+00 -7.6527385633098421e-01 +1.6417572281672994e+00 +1.4504710904787153e+01 +3.6195628139300496e+01 +1.4321293621632374e+03 +1.1093521701865731e+05 +4.5192100088117458e+06 
+8.7999999999999847e+00 -7.6527390264368778e-01 +1.6417625962558846e+00 +1.4500636290926368e+01 +3.6145318474665999e+01 +1.5076195495655493e+03 +1.1086851599213647e+05 +4.1463914290204314e+06 
+8.8999999999999844e+00 -7.6527394964809636e-01 +1.6417667342219240e+00 +1.4496302133795314e+01 +3.6147606281489445e+01 +1.5811749302320618e+03 +1.1048230166606150e+05 +3.8050237415472073e+06 
+8.9999999999999840e+00 -7.6527399990590972e-01 +1.6417692180888259e+00 +1.4491832094281692e+01 +3.6212993562299090e+01 +1.6498742470537545e+03 +1.0972899172264524e+05 +3.5116502658650372e+06 
+9.0999999999999837e+00 -7.6527405549323824e-01 +1.6417697164632088e+00 +1.4487331842841165e+01 +3.6349400943039370e+01 +1.7115082745306568e+03 +1.0857205062881182e+05 +3.2780696074064882e+06 
+9.1999999999999833e+00 -7.6527411677269885e-01 +1.6417683270687560e+00 +1.4482859240157248e+01 +3.6549752069775707e+01 +1.7663220763062627e+03 +1.0705274049851055e+05 +3.0990822468919987e+06 
+9.2999999999999829e+00 -7.6527418372704314e-01 +1.6417652688898845e+00 +1.4478464723433154e+01 +3.6802056687449351e+01 +1.8151239204177743e+03 +1.0524001898064732e+05 +2.9654448306334410e+06 
+9.3999999999999826e+00 -7.6527425633918955e-01 +1.6417607607107036e+00 +1.4474198752777657e+01 +3.7094330421508374e+01 +1.8587217085866769e+03 +1.0320280706334127e+05 +2.8679156112883440e+06 
+9.4999999999999822e+00 -7.6527433459224925e-01 +1.6417550211064318e+00 +1.4470111818469976e+01 +3.7414595548670363e+01 +1.8979227441993817e+03 +1.0100998413035247e+05 +2.7972557750028200e+06 
+9.5999999999999819e+00 -7.6527441846953070e-01 +1.6417482684256792e+00 +1.4466254440072820e+01 +3.7750881495197191e+01 +1.9335337598651911e+03 +9.8730385046981566e+04 +2.7442292816074160e+06 
+9.6999999999999815e+00 -7.6527450795454843e-01 +1.6417407207911556e+00 +1.4462677167543232e+01 +3.8091224859893579e+01 +1.9663608985812673e+03 +9.6432799879655664e+04 +2.6996029491465301e+06 
+9.7999999999999812e+00 -7.6527460303100447e-01 +1.6417325960853786e+00 +1.4459430581206112e+01 +3.8423669834926812e+01 +1.9972096961556692e+03 +9.4185971390410385e+04 +2.6541465886568194e+06 
+9.8999999999999808e+00 -7.6527470368283090e-01 +1.6417241119513077e+00 +1.4456565294720985e+01 +3.8736268206512264e+01 +2.0268850421925181e+03 +9.2058594939967516e+04 +2.5986331440828242e+06 
+9.9999999999999805e+00 -7.6527480989417485e-01 +1.6417154858206795e+00 +1.4454131957870292e+01 +3.9017077968225038e+01 +2.0561910273682188e+03 +9.0119328906681709e+04 +2.5238398275478533e+06 
+1.0099999999999980e+01 -7.6527492177827139e-01 +1.6417069536382760e+00 +1.4452188635527898e+01 +3.9254072191985820e+01 +2.0852841148740617e+03 +8.8440960506989970e+04 +2.4251711967950943e+06 
