# trajectory
# s[mm] rx[mm] ry[mm] rz[mm] px[rad] py[rad] pz[rad]
0.0000000000000000e+00 +6.4329999999999998e+00 +0.0000000000000000e+00 +0.0000000000000000e+00 +0.0000000000000000e+00 +0.0000000000000000e+00 +1.0000000000000000e+00
1.0000000000000001e-01 +6.4329996400213725e+00 +0.0000000000000000e+00 +9.9999999999136099e-02 -7.1995721609142148e-06 +0.0000000000000000e+00 +9.9999999997408306e-01
2.0000000000000001e-01 +6.4329985600856281e+00 +0.0000000000000000e+00 +1.9999999999308882e-01 -1.4399142498743017e-05 +0.0000000000000000e+00 +9.9999999989633237e-01
3.0000000000000004e-01 +6.4329967601929052e+00 +0.0000000000000000e+00 +2.9999999997667476e-01 -2.1598711858471145e-05 +0.0000000000000000e+00 +9.9999999976674780e-01
4.0000000000000002e-01 +6.4329942403432634e+00 +0.0000000000000000e+00 +3.9999999994471058e-01 -2.8798281004742510e-05 +0.0000000000000000e+00 +9.9999999958532948e-01
5.0000000000000000e-01 +6.4329910005366884e+00 +0.0000000000000000e+00 +4.9999999989201288e-01 -3.5997850621862228e-05 +0.0000000000000000e+00 +9.9999999935207740e-01
5.9999999999999998e-01 +6.4329870407731029e+00 +0.0000000000000000e+00 +5.9999999981339824e-01 -4.3197421313798316e-05 +0.0000000000000000e+00 +9.9999999906699144e-01
6.9999999999999996e-01 +6.4329823610523720e+00 +0.0000000000000000e+00 +6.9999999970368332e-01 -5.0396993604183051e-05 +0.0000000000000000e+00 +9.9999999873007162e-01
7.9999999999999993e-01 +6.4329769613743135e+00 +0.0000000000000000e+00 +7.9999999955768475e-01 -5.7596567936313967e-05 +0.0000000000000000e+00 +9.9999999834131781e-01
8.9999999999999991e-01 +6.4329708417387046e+00 +0.0000000000000000e+00 +8.9999999937021913e-01 -6.4796144673154486e-05 +0.0000000000000000e+00 +9.9999999790072991e-01
9.9999999999999989e-01 +6.4329640021452894e+00 +0.0000000000000000e+00 +9.9999999913610294e-01 -7.1995724097334262e-05 +0.0000000000000000e+00 +9.9999999740830792e-01
1.0999999999999999e+00 +6.4329564425937891e+00 +0.0000000000000000e+00 +1.0999999988501528e+00 -7.9195306412139493e-05 +0.0000000000000000e+00 +9.9999999686405183e-01
1.2000000000000000e+00 +6.4329481630839060e+00 +0.0000000000000000e+00 +1.1999999985071854e+00 -8.6394891752407133e-05 +0.0000000000000000e+00 +9.9999999626796143e-01
1.3000000000000000e+00 +6.4329391636153348e+00 +0.0000000000000000e+00 +1.2999999981020172e+00 -9.3594480195418976e-05 +0.0000000000000000e+00 +9.9999999562003672e-01
1.4000000000000001e+00 +6.4329294441877627e+00 +0.0000000000000000e+00 +1.3999999976294648e+00 -1.0079407176189161e-04 +0.0000000000000000e+00 +9.9999999492027758e-01
1.5000000000000002e+00 +6.4329190048008789e+00 +0.0000000000000000e+00 +1.4999999970843447e+00 -1.0799366641597570e-04 +0.0000000000000000e+00 +9.9999999416868401e-01
1.6000000000000003e+00 +6.4329078454543795e+00 +0.0000000000000000e+00 +1.5999999964614737e+00 -1.1519326406525510e-04 +0.0000000000000000e+00 +9.9999999336525591e-01
1.7000000000000004e+00 +6.4328959661479708e+00 +0.0000000000000000e+00 +1.6999999957556682e+00 -1.2239286456074567e-04 +0.0000000000000000e+00 +9.9999999250999327e-01
1.8000000000000005e+00 +6.4328833668813790e+00 +0.0000000000000000e+00 +1.7999999949617447e+00 -1.2959246769689387e-04 +0.0000000000000000e+00 +9.9999999160289610e-01
1.9000000000000006e+00 +6.4328700476543519e+00 +0.0000000000000000e+00 +1.8999999940745196e+00 -1.3679207321157518e-04 +0.0000000000000000e+00 +9.9999999064396428e-01
2.0000000000000004e+00 +6.4328560084666675e+00 +0.0000000000000000e+00 +1.9999999930888097e+00 -1.4399168078609216e-04 +0.0000000000000000e+00 +9.9999998963319781e-01
2.1000000000000005e+00 +6.4328412493181384e+00 +0.0000000000000000e+00 +2.0999999919994314e+00 -1.5119129005264465e-04 +0.0000000000000000e+00 +9.9999998857059680e-01
2.2000000000000006e+00 +6.4328257702086118e+00 +0.0000000000000000e+00 +2.1999999908012011e+00 -1.5839090067652192e-04 +0.0000000000000000e+00 +9.9999998745616114e-01
2.3000000000000007e+00 +6.4328095711379651e+00 +0.0000000000000000e+00 +2.2999999894889358e+00 -1.6559051243829597e-04 +0.0000000000000000e+00 +9.9999998628989095e-01
2.4000000000000008e+00 +6.4327926521060901e+00 +0.0000000000000000e+00 +2.3999999880574516e+00 -1.7279012524129301e-04 +0.0000000000000000e+00 +9.9999998507178611e-01
2.5000000000000009e+00 +6.4327750131128818e+00 +0.0000000000000000e+00 +2.4999999865015652e+00 -1.7998973911159292e-04 +0.0000000000000000e+00 +9.9999998380184674e-01
2.6000000000000010e+00 +6.4327566541582275e+00 +0.0000000000000000e+00 +2.5999999848160931e+00 -1.8718935419802878e-04 +0.0000000000000000e+00 +9.9999998248007260e-01
2.7000000000000011e+00 +6.4327375752419931e+00 +0.0000000000000000e+00 +2.6999999829958519e+00 -1.9438897077218617e-04 +0.0000000000000000e+00 +9.9999998110646371e-01
2.8000000000000012e+00 +6.4327177763640107e+00 +0.0000000000000000e+00 +2.7999999810356582e+00 -2.0158858922840269e-04 +0.0000000000000000e+00 +9.9999997968102006e-01
2.9000000000000012e+00 +6.4326972575240680e+00 +0.0000000000000000e+00 +2.8999999789303281e+00 -2.0878821008376734e-04 +0.0000000000000000e+00 +9.9999997820374131e-01
3.0000000000000013e+00 +6.4326760187218932e+00 +0.0000000000000000e+00 +2.9999999766746783e+00 -2.1598783397811997e-04 +0.0000000000000000e+00 +9.9999997667462737e-01
3.1000000000000014e+00 +6.4326540599571462e+00 +0.0000000000000000e+00 +3.0999999742635254e+00 -2.2318746166604973e-04 +0.0000000000000000e+00 +9.9999997509367800e-01
3.2000000000000015e+00 +6.4326313812294078e+00 +0.0000000000000000e+00 +3.1999999716916858e+00 -2.3038709392888282e-04 +0.0000000000000000e+00 +9.9999997346089298e-01
3.3000000000000016e+00 +6.4326079825381841e+00 +0.0000000000000000e+00 +3.2999999689539758e+00 -2.3758673148666854e-04 +0.0000000000000000e+00 +9.9999997177627198e-01
3.4000000000000017e+00 +6.4325838638829120e+00 +0.0000000000000000e+00 +3.3999999660452120e+00 -2.4478637499017426e-04 +0.0000000000000000e+00 +9.9999997003981478e-01
3.5000000000000018e+00 +6.4325590252629681e+00 +0.0000000000000000e+00 +3.4999999629602110e+00 -2.5198602502088103e-04 +0.0000000000000000e+00 +9.9999996825152104e-01
3.6000000000000019e+00 +6.4325334666776728e+00 +0.0000000000000000e+00 +3.5999999596937884e+00 -2.5918568209097918e-04 +0.0000000000000000e+00 +9.9999996641139044e-01
3.7000000000000020e+00 +6.4325071881263005e+00 +0.0000000000000000e+00 +3.6999999562407608e+00 -2.6638534664336349e-04 +0.0000000000000000e+00 +9.9999996451942286e-01
3.8000000000000020e+00 +6.4324801896080830e+00 +0.0000000000000000e+00 +3.7999999525959449e+00 -2.7358501905162813e-04 +0.0000000000000000e+00 +9.9999996257561796e-01
3.9000000000000021e+00 +6.4324524711222182e+00 +0.0000000000000000e+00 +3.8999999487541563e+00 -2.8078469962006133e-04 +0.0000000000000000e+00 +9.9999996057997542e-01
4.0000000000000018e+00 +6.4324240326678783e+00 +0.0000000000000000e+00 +3.9999999447102117e+00 -2.8798438858363990e-04 +0.0000000000000000e+00 +9.9999995853249513e-01
4.1000000000000014e+00 +6.4323948742442161e+00 +0.0000000000000000e+00 +4.0999999404589271e+00 -2.9518408610446843e-04 +0.0000000000000000e+00 +9.9999995643317674e-01
4.2000000000000011e+00 +6.4323649958503708e+00 +0.0000000000000000e+00 +4.1999999359951188e+00 -3.0238379223267121e-04 +0.0000000000000000e+00 +9.9999995428202004e-01
4.3000000000000007e+00 +6.4323343974854854e+00 +0.0000000000000000e+00 +4.2999999313136028e+00 -3.0958350686729547e-04 +0.0000000000000000e+00 +9.9999995207902503e-01
4.4000000000000004e+00 +6.4323030791487215e+00 +0.0000000000000000e+00 +4.3999999264091958e+00 -3.1678322975277096e-04 +0.0000000000000000e+00 +9.9999994982419149e-01
4.5000000000000000e+00 +6.4322710408392734e+00 +0.0000000000000000e+00 +4.4999999212767134e+00 -3.2398296047892583e-04 +0.0000000000000000e+00 +9.9999994751751931e-01
4.5999999999999996e+00 +6.4322382825563835e+00 +0.0000000000000000e+00 +4.5999999159109715e+00 -3.3118269848100368e-04 +0.0000000000000000e+00 +9.9999994515900859e-01
4.6999999999999993e+00 +6.4322048042993583e+00 +0.0000000000000000e+00 +4.6999999103067864e+00 -3.3838244303968130e-04 +0.0000000000000000e+00 +9.9999994274865944e-01
4.7999999999999989e+00 +6.4321706060675856e+00 +0.0000000000000000e+00 +4.7999999044589750e+00 -3.4558219328108752e-04 +0.0000000000000000e+00 +9.9999994028647199e-01
4.8999999999999986e+00 +6.4321356878605469e+00 +0.0000000000000000e+00 +4.8999998983623527e+00 -3.5278194817682312e-04 +0.0000000000000000e+00 +9.9999993777244656e-01
4.9999999999999982e+00 +6.4321000496778344e+00 +0.0000000000000000e+00 +4.9999998920117363e+00 -3.5998170654398146e-04 +0.0000000000000000e+00 +9.9999993520658337e-01
5.0999999999999979e+00 +6.4320636915191667e+00 +0.0000000000000000e+00 +5.0999998854019415e+00 -3.6718146706434733e-04 +0.0000000000000000e+00 +9.9999993258888287e-01
5.1999999999999975e+00 +6.4320266133843917e+00 +0.0000000000000000e+00 +5.1999998785277848e+00 -3.7438122849536197e-04 +0.0000000000000000e+00 +9.9999992991934539e-01
5.2999999999999972e+00 +6.4319888152734697e+00 +0.0000000000000000e+00 +5.2999998713840828e+00 -3.8158098988106998e-04 +0.0000000000000000e+00 +9.9999992719797137e-01
5.3999999999999968e+00 +6.4319502971864395e+00 +0.0000000000000000e+00 +5.3999998639656512e+00 -3.8878075057128489e-04 +0.0000000000000000e+00 +9.9999992442476104e-01
5.4999999999999964e+00 +6.4319110591233910e+00 +0.0000000000000000e+00 +5.4999998562673067e+00 -3.9598051022157673e-04 +0.0000000000000000e+00 +9.9999992159971463e-01
5.5999999999999961e+00 +6.4318711010844316e+00 +0.0000000000000000e+00 +5.5999998482838658e+00 -4.0318026879325832e-04 +0.0000000000000000e+00 +9.9999991872283212e-01
5.6999999999999957e+00 +6.4318304230696599e+00 +0.0000000000000000e+00 +5.6999998400101450e+00 -4.1038002655337138e-04 +0.0000000000000000e+00 +9.9999991579411340e-01
5.7999999999999954e+00 +6.4317890250791301e+00 +0.0000000000000000e+00 +5.7999998314409602e+00 -4.1757978407467141e-04 +0.0000000000000000e+00 +9.9999991281355816e-01
5.8999999999999950e+00 +6.4317469071128244e+00 +0.0000000000000000e+00 +5.8999998225711288e+00 -4.2477954223561228e-04 +0.0000000000000000e+00 +9.9999990978116615e-01
5.9999999999999947e+00 +6.4317040691706229e+00 +0.0000000000000000e+00 +5.9999998133954655e+00 -4.3197930222032974e-04 +0.0000000000000000e+00 +9.9999990669693684e-01
6.0999999999999943e+00 +6.4316605112522707e+00 +0.0000000000000000e+00 +6.0999998039087879e+00 -4.3917906549282535e-04 +0.0000000000000000e+00 +9.9999990356086954e-01
6.1999999999999940e+00 +6.4316162333573654e+00 +0.0000000000000000e+00 +6.1999997941059117e+00 -4.4637883351315844e-04 +0.0000000000000000e+00 +9.9999990037296349e-01
6.2999999999999936e+00 +6.4315712354853707e+00 +0.0000000000000000e+00 +6.2999997839816526e+00 -4.5357860745364235e-04 +0.0000000000000000e+00 +9.9999989713321813e-01
6.3999999999999932e+00 +6.4315255176356487e+00 +0.0000000000000000e+00 +6.3999997735308272e+00 -4.6077838817303648e-04 +0.0000000000000000e+00 +9.9999989384163290e-01
6.4999999999999929e+00 +6.4314790798074917e+00 +0.0000000000000000e+00 +6.4999997627482511e+00 -4.6797817621653802e-04 +0.0000000000000000e+00 +9.9999989049820737e-01
6.5999999999999925e+00 +6.4314319220001535e+00 +0.0000000000000000e+00 +6.5999997516287401e+00 -4.7517797181577317e-04 +0.0000000000000000e+00 +9.9999988710294130e-01
6.6999999999999922e+00 +6.4313840442128791e+00 +0.0000000000000000e+00 +6.6999997401671108e+00 -4.8237777488878799e-04 +0.0000000000000000e+00 +9.9999988365583448e-01
6.7999999999999918e+00 +6.4313354464449395e+00 +0.0000000000000000e+00 +6.7999997283581788e+00 -4.8957758504003935e-04 +0.0000000000000000e+00 +9.9999988015688701e-01
6.8999999999999915e+00 +6.4312861286956586e+00 +0.0000000000000000e+00 +6.8999997161967599e+00 -4.9677740156038510e-04 +0.0000000000000000e+00 +9.9999987660609913e-01
6.9999999999999911e+00 +6.4312360909644486e+00 +0.0000000000000000e+00 +6.9999997036776707e+00 -5.0397722342707422e-04 +0.0000000000000000e+00 +9.9999987300347115e-01
7.0999999999999908e+00 +6.4311853332508386e+00 +0.0000000000000000e+00 +7.0999996907957268e+00 -5.1117704932654917e-04 +0.0000000000000000e+00 +9.9999986934900364e-01
7.1999999999999904e+00 +6.4311338555544939e+00 +0.0000000000000000e+00 +7.1999996775457440e+00 -5.1837687790537424e-04 +0.0000000000000000e+00 +9.9999986564269727e-01
7.2999999999999901e+00 +6.4310816578752066e+00 +0.0000000000000000e+00 +7.2999996639225389e+00 -5.2557670802117363e-04 +0.0000000000000000e+00 +9.9999986188455248e-01
7.3999999999999897e+00 +6.4310287402128692e+00 +0.0000000000000000e+00 +7.3999996499209271e+00 -5.3277653876544707e-04 +0.0000000000000000e+00 +9.9999985807456981e-01
7.4999999999999893e+00 +6.4309751025674551e+00 +0.0000000000000000e+00 +7.4999996355357252e+00 -5.3997636946357308e-04 +0.0000000000000000e+00 +9.9999985421274962e-01
7.5999999999999890e+00 +6.4309207449389927e+00 +0.0000000000000000e+00 +7.5999996207617491e+00 -5.4717619967481240e-04 +0.0000000000000000e+00 +9.9999985029909211e-01
7.6999999999999886e+00 +6.4308656673275433e+00 +0.0000000000000000e+00 +7.6999996055938151e+00 -5.5437602919231163e-04 +0.0000000000000000e+00 +9.9999984633359740e-01
7.7999999999999883e+00 +6.4308098697331770e+00 +0.0000000000000000e+00 +7.7999995900267400e+00 -5.6157585804310697e-04 +0.0000000000000000e+00 +9.9999984231626549e-01
7.8999999999999879e+00 +6.4307533521559490e+00 +0.0000000000000000e+00 +7.8999995740553404e+00 -5.6877568648812816e-04 +0.0000000000000000e+00 +9.9999983824709626e-01
7.9999999999999876e+00 +6.4306961145958770e+00 +0.0000000000000000e+00 +7.9999995576744318e+00 -5.7597551502220278e-04 +0.0000000000000000e+00 +9.9999983412608939e-01
8.0999999999999872e+00 +6.4306381570529174e+00 +0.0000000000000000e+00 +8.0999995408788301e+00 -5.8317534436342689e-04 +0.0000000000000000e+00 +9.9999982995324455e-01
8.1999999999999869e+00 +6.4305794795269495e+00 +0.0000000000000000e+00 +8.1999995236633527e+00 -5.9037517533620169e-04 +0.0000000000000000e+00 +9.9999982572856116e-01
8.2999999999999865e+00 +6.4305200820177690e+00 +0.0000000000000000e+00 +8.2999995060228144e+00 -5.9757500875429464e-04 +0.0000000000000000e+00 +9.9999982145203870e-01
8.3999999999999861e+00 +6.4304599645250908e+00 +0.0000000000000000e+00 +8.3999994879520319e+00 -6.0477484541025502e-04 +0.0000000000000000e+00 +9.9999981712367658e-01
8.4999999999999858e+00 +6.4303991270485534e+00 +0.0000000000000000e+00 +8.4999994694458216e+00 -6.1197468607546634e-04 +0.0000000000000000e+00 +9.9999981274347438e-01
8.5999999999999854e+00 +6.4303375695877172e+00 +0.0000000000000000e+00 +8.5999994504989985e+00 -6.1917453150019998e-04 +0.0000000000000000e+00 +9.9999980831143154e-01
8.6999999999999851e+00 +6.4302752921420705e+00 +0.0000000000000000e+00 +8.6999994311063791e+00 -6.2637438241367025e-04 +0.0000000000000000e+00 +9.9999980382754738e-01
8.7999999999999847e+00 +6.4302122947110281e+00 +0.0000000000000000e+00 +8.7999994112627800e+00 -6.3357423952409167e-04 +0.0000000000000000e+00 +9.9999979929182148e-01
8.8999999999999844e+00 +6.4301485772939362e+00 +0.0000000000000000e+00 +8.8999993909630160e+00 -6.4077410351873708e-04 +0.0000000000000000e+00 +9.9999979470425315e-01
8.9999999999999840e+00 +6.4300841398900728e+00 +0.0000000000000000e+00 +8.9999993702019019e+00 -6.4797397506399768e-04 +0.0000000000000000e+00 +9.9999979006484185e-01
9.0999999999999837e+00 +6.4300189824986500e+00 +0.0000000000000000e+00 +9.0999993489742561e+00 -6.5517385480001560e-04 +0.0000000000000000e+00 +9.9999978537358702e-01
9.1999999999999833e+00 +6.4299531051188206e+00 +0.0000000000000000e+00 +9.1999993272748917e+00 -6.6237374328101091e-04 +0.0000000000000000e+00 +9.9999978063048811e-01
9.2999999999999829e+00 +6.4298865077496883e+00 +0.0000000000000000e+00 +9.2999993050986252e+00 -6.6957364091552261e-04 +0.0000000000000000e+00 +9.9999977583554467e-01
9.3999999999999826e+00 +6.4298191903903232e+00 +0.0000000000000000e+00 +9.3999992824402714e+00 -6.7677354796088910e-04 +0.0000000000000000e+00 +9.9999977098875625e-01
9.4999999999999822e+00 +6.4297511530397786e+00 +0.0000000000000000e+00 +9.4999992592946469e+00 -6.8397346452315285e-04 +0.0000000000000000e+00 +9.9999976609012264e-01
9.5999999999999819e+00 +6.4296823956971032e+00 +0.0000000000000000e+00 +9.5999992356565667e+00 -6.9117339055696199e-04 +0.0000000000000000e+00 +9.9999976113964362e-01
9.6999999999999815e+00 +6.4296129183613582e+00 +0.0000000000000000e+00 +9.6999992115208471e+00 -6.9837332586546923e-04 +0.0000000000000000e+00 +9.9999975613731917e-01
9.7999999999999812e+00 +6.4295427210316323e+00 +0.0000000000000000e+00 +9.7999991868823031e+00 -7.0557327010022845e-04 +0.0000000000000000e+00 +9.9999975108314931e-01
9.8999999999999808e+00 +6.4294718037070568e+00 +0.0000000000000000e+00 +9.8999991617357495e+00 -7.1277322276108832e-04 +0.0000000000000000e+00 +9.9999974597713426e-01
9.9999999999999805e+00 +6.4294001663868210e+00 +0.0000000000000000e+00 +9.9999991360760028e+00 -7.1997318319608314e-04 +0.0000000000000000e+00 +9.9999974081927423e-01
1.0099999999999980e+01 +6.4293278090701849e+00 +0.0000000000000000e+00 +1.0099999109897878e+01 -7.2717315061285282e-04 +0.0000000000000000e+00 +9.9999973560956967e-01
1.0199999999999980e+01 +6.4292547317564921e+00 +0.0000000000000000e+00 +1.0199999083196190e+01 -7.3437312420540559e-04 +0.0000000000000000e+00 +9.9999973034802103e-01
1.0299999999999979e+01 +6.4291809344451609e+00 +0.0000000000000000e+00 +1.0299999055965754e+01 -7.4157310328099686e-04 +0.0000000000000000e+00 +9.9999972503462864e-01
1.0399999999999979e+01 +6.4291064171356727e+00 +0.0000000000000000e+00 +1.0399999028201387e+01 -7.4877308727175297e-04 +0.0000000000000000e+00 +9.9999971966939283e-01
1.0499999999999979e+01 +6.4290311798275583e+00 +0.0000000000000000e+00 +1.0499998999897905e+01 -7.5597307573476900e-04 +0.0000000000000000e+00 +9.9999971425231382e-01
1.0599999999999978e+01 +6.4289552225203872e+00 +0.0000000000000000e+00 +1.0599998971050121e+01 -7.6317306835220824e-04 +0.0000000000000000e+00 +9.9999970878339173e-01
1.0699999999999978e+01 +6.4288785452137560e+00 +0.0000000000000000e+00 +1.0699998941652854e+01 -7.7037306493140496e-04 +0.0000000000000000e+00 +9.9999970326262666e-01
1.0799999999999978e+01 +6.4288011479072713e+00 +0.0000000000000000e+00 +1.0799998911700918e+01 -7.7757306540496914e-04 +0.0000000000000000e+00 +9.9999969769001851e-01
1.0899999999999977e+01 +6.4287230306005432e+00 +0.0000000000000000e+00 +1.0899998881189129e+01 -7.8477306983089367e-04 +0.0000000000000000e+00 +9.9999969206556727e-01
1.0999999999999977e+01 +6.4286441932931675e+00 +0.0000000000000000e+00 +1.0999998850112302e+01 -7.9197307839266439e-04 +0.0000000000000000e+00 +9.9999968638927261e-01
1.1099999999999977e+01 +6.4285646359847171e+00 +0.0000000000000000e+00 +1.1099998818465254e+01 -7.9917309138943966e-04 +0.0000000000000000e+00 +9.9999968066113420e-01
1.1199999999999976e+01 +6.4284843586747318e+00 +0.0000000000000000e+00 +1.1199998786242800e+01 -8.0637310912687820e-04 +0.0000000000000000e+00 +9.9999967488115182e-01
1.1299999999999976e+01 +6.4284033613627267e+00 +0.0000000000000000e+00 +1.1299998753439755e+01 -8.1357313180785082e-04 +0.0000000000000000e+00 +9.9999966904932502e-01
1.1399999999999975e+01 +6.4283216440482018e+00 +0.0000000000000000e+00 +1.1399998720050936e+01 -8.2077315952241818e-04 +0.0000000000000000e+00 +9.9999966316565381e-01
1.1499999999999975e+01 +6.4282392067306544e+00 +0.0000000000000000e+00 +1.1499998686071159e+01 -8.2797319224773615e-04 +0.0000000000000000e+00 +9.9999965723013795e-01
1.1599999999999975e+01 +6.4281560494095897e+00 +0.0000000000000000e+00 +1.1599998651495236e+01 -8.3517322984795928e-04 +0.0000000000000000e+00 +9.9999965124277745e-01
1.1699999999999974e+01 +6.4280721720845309e+00 +0.0000000000000000e+00 +1.1699998616317986e+01 -8.4237327207414175e-04 +0.0000000000000000e+00 +9.9999964520357254e-01
1.1799999999999974e+01 +6.4279875747550328e+00 +0.0000000000000000e+00 +1.1799998580534222e+01 -8.4957331856413628e-04 +0.0000000000000000e+00 +9.9999963911252332e-01
