# trajectory
# s[mm] rx[mm] ry[mm] rz[mm] px[rad] py[rad] pz[rad]
0.0000000000000000e+00 +6.4329999999999998e+00 +0.0000000000000000e+00 +0.0000000000000000e+00 +0.0000000000000000e+00 +0.0000000000000000e+00 +1.0000000000000000e+00
1.0000000000000001e-01 +6.4329996401031000e+00 +0.0000000000000000e+00 +9.9999999999136502e-02 -7.1979380201835228e-06 +0.0000000000000000e+00 +9.9999999997409483e-01
2.0000000000000001e-01 +6.4329985604124005e+00 +0.0000000000000000e+00 +1.9999999999309198e-01 -1.4395875907454491e-05 +0.0000000000000000e+00 +9.9999999989637933e-01
3.0000000000000004e-01 +6.4329967609279377e+00 +0.0000000000000000e+00 +2.9999999997668536e-01 -2.1593813212319578e-05 +0.0000000000000000e+00 +9.9999999976685361e-01
4.0000000000000002e-01 +6.4329942416497881e+00 +0.0000000000000000e+00 +3.9999999994473567e-01 -2.8791749616673584e-05 +0.0000000000000000e+00 +9.9999999958551755e-01
5.0000000000000000e-01 +6.4329910025780510e+00 +0.0000000000000000e+00 +4.9999999989206190e-01 -3.5989684933799778e-05 +0.0000000000000000e+00 +9.9999999935237127e-01
5.9999999999999998e-01 +6.4329870437128394e+00 +0.0000000000000000e+00 +5.9999999981348295e-01 -4.3187619108370667e-05 +0.0000000000000000e+00 +9.9999999906741477e-01
6.9999999999999996e-01 +6.4329823650542650e+00 +0.0000000000000000e+00 +6.9999999970381788e-01 -5.0385552216449271e-05 +0.0000000000000000e+00 +9.9999999873064804e-01
7.9999999999999993e-01 +6.4329769666024248e+00 +0.0000000000000000e+00 +7.9999999955788559e-01 -5.7583484465490864e-05 +0.0000000000000000e+00 +9.9999999834207109e-01
8.9999999999999991e-01 +6.4329708483573889e+00 +0.0000000000000000e+00 +8.9999999937050512e-01 -6.4781416194345198e-05 +0.0000000000000000e+00 +9.9999999790168403e-01
9.9999999999999989e-01 +6.4329640103191874e+00 +0.0000000000000000e+00 +9.9999999913649540e-01 -7.1979347873259194e-05 +0.0000000000000000e+00 +9.9999999740948675e-01
1.0999999999999999e+00 +6.4329564524877965e+00 +0.0000000000000000e+00 +1.0999999988506755e+00 -7.9177280091811280e-05 +0.0000000000000000e+00 +9.9999999686547913e-01
1.2000000000000000e+00 +6.4329481748631316e+00 +0.0000000000000000e+00 +1.1999999985078642e+00 -8.6375213426157172e-05 +0.0000000000000000e+00 +9.9999999626966118e-01
1.3000000000000000e+00 +6.4329391774450588e+00 +0.0000000000000000e+00 +1.2999999981028807e+00 -9.3573148306272367e-05 +0.0000000000000000e+00 +9.9999999562203290e-01
1.4000000000000001e+00 +6.4329294602334093e+00 +0.0000000000000000e+00 +1.3999999976305437e+00 -1.0077108500388041e-04 +0.0000000000000000e+00 +9.9999999492259417e-01
1.5000000000000002e+00 +6.4329190232279938e+00 +0.0000000000000000e+00 +1.4999999970856723e+00 -1.0796902363244897e-04 +0.0000000000000000e+00 +9.9999999417134489e-01
1.6000000000000003e+00 +6.4329078664286197e+00 +0.0000000000000000e+00 +1.5999999964630855e+00 -1.1516696414718498e-04 +0.0000000000000000e+00 +9.9999999336828505e-01
1.7000000000000004e+00 +6.4328959898351075e+00 +0.0000000000000000e+00 +1.6999999957576022e+00 -1.2236490634502897e-04 +0.0000000000000000e+00 +9.9999999251341465e-01
1.8000000000000005e+00 +6.4328833934473062e+00 +0.0000000000000000e+00 +1.7999999949640413e+00 -1.2956284986464833e-04 +0.0000000000000000e+00 +9.9999999160673381e-01
1.9000000000000006e+00 +6.4328700772651075e+00 +0.0000000000000000e+00 +1.8999999940772219e+00 -1.3676079418642985e-04 +0.0000000000000000e+00 +9.9999999064824241e-01
2.0000000000000004e+00 +6.4328560412884643e+00 +0.0000000000000000e+00 +1.9999999930919627e+00 -1.4395873863247115e-04 +0.0000000000000000e+00 +9.9999998963794057e-01
2.1000000000000005e+00 +6.4328412855174042e+00 +0.0000000000000000e+00 +2.0999999920030827e+00 -1.5115668238186312e-04 +0.0000000000000000e+00 +9.9999998857582850e-01
2.2000000000000006e+00 +6.4328258099520381e+00 +0.0000000000000000e+00 +2.1999999908054013e+00 -1.5835462463888961e-04 +0.0000000000000000e+00 +9.9999998746190621e-01
2.3000000000000007e+00 +6.4328096145925464e+00 +0.0000000000000000e+00 +2.2999999894937369e+00 -1.6555256480123444e-04 +0.0000000000000000e+00 +9.9999998629617393e-01
2.4000000000000008e+00 +6.4327926994391609e+00 +0.0000000000000000e+00 +2.3999999880629090e+00 -1.7275050247527615e-04 +0.0000000000000000e+00 +9.9999998507863175e-01
2.5000000000000009e+00 +6.4327750644921409e+00 +0.0000000000000000e+00 +2.4999999865077362e+00 -1.7994843747609203e-04 +0.0000000000000000e+00 +9.9999998380927968e-01
2.6000000000000010e+00 +6.4327567097517546e+00 +0.0000000000000000e+00 +2.5999999848230377e+00 -1.8714636982746297e-04 +0.0000000000000000e+00 +9.9999998248811783e-01
2.7000000000000011e+00 +6.4327376352182561e+00 +0.0000000000000000e+00 +2.6999999830036328e+00 -1.9434429976187883e-04 +0.0000000000000000e+00 +9.9999998111514621e-01
2.8000000000000012e+00 +6.4327178408918684e+00 +0.0000000000000000e+00 +2.7999999810443401e+00 -2.0154222772054471e-04 +0.0000000000000000e+00 +9.9999997969036480e-01
2.9000000000000012e+00 +6.4326973267727565e+00 +0.0000000000000000e+00 +2.8999999789399786e+00 -2.0874015435338783e-04 +0.0000000000000000e+00 +9.9999997821377351e-01
3.0000000000000013e+00 +6.4326760928610129e+00 +0.0000000000000000e+00 +2.9999999766853676e+00 -2.1593808051906518e-04 +0.0000000000000000e+00 +9.9999997668537222e-01
3.1000000000000014e+00 +6.4326541391566332e+00 +0.0000000000000000e+00 +3.0999999742753261e+00 -2.2313600727038942e-04 +0.0000000000000000e+00 +9.9999997510516059e-01
3.2000000000000015e+00 +6.4326314656595027e+00 +0.0000000000000000e+00 +3.1999999717046728e+00 -2.3033393569393013e-04 +0.0000000000000000e+00 +9.9999997347313840e-01
3.3000000000000016e+00 +6.4326080723694057e+00 +0.0000000000000000e+00 +3.2999999689682267e+00 -2.3753186674961170e-04 +0.0000000000000000e+00 +9.9999997178930544e-01
3.4000000000000017e+00 +6.4325839592860374e+00 +0.0000000000000000e+00 +3.3999999660608067e+00 -2.4472980125613377e-04 +0.0000000000000000e+00 +9.9999997005366148e-01
3.5000000000000018e+00 +6.4325591264090169e+00 +0.0000000000000000e+00 +3.4999999629772320e+00 -2.5192773989097421e-04 +0.0000000000000000e+00 +9.9999996826620619e-01
3.6000000000000019e+00 +6.4325335737379037e+00 +0.0000000000000000e+00 +3.5999999597123211e+00 -2.5912568319039203e-04 +0.0000000000000000e+00 +9.9999996642693934e-01
3.7000000000000020e+00 +6.4325073012722100e+00 +0.0000000000000000e+00 +3.6999999562608927e+00 -2.6632363154943076e-04 +0.0000000000000000e+00 +9.9999996453586071e-01
3.8000000000000020e+00 +6.4324803090114164e+00 +0.0000000000000000e+00 +3.7999999526177661e+00 -2.7352158522192174e-04 +0.0000000000000000e+00 +9.9999996259297019e-01
3.9000000000000021e+00 +6.4324525969549846e+00 +0.0000000000000000e+00 +3.8999999487777597e+00 -2.8071954432048763e-04 +0.0000000000000000e+00 +9.9999996059826768e-01
4.0000000000000018e+00 +6.4324241651023719e+00 +0.0000000000000000e+00 +3.9999999447356926e+00 -2.8791750881654608e-04 +0.0000000000000000e+00 +9.9999995855175294e-01
4.1000000000000014e+00 +6.4323950134530463e+00 +0.0000000000000000e+00 +4.0999999404863834e+00 -2.9511547854784126e-04 +0.0000000000000000e+00 +9.9999995645342599e-01
4.2000000000000011e+00 +6.4323651420064953e+00 +0.0000000000000000e+00 +4.1999999360246507e+00 -3.0231345330125218e-04 +0.0000000000000000e+00 +9.9999995430328670e-01
4.3000000000000007e+00 +6.4323345507622252e+00 +0.0000000000000000e+00 +4.2999999313453134e+00 -3.0951143289559621e-04 +0.0000000000000000e+00 +9.9999995210133508e-01
4.4000000000000004e+00 +6.4323032397197597e+00 +0.0000000000000000e+00 +4.3999999264431908e+00 -3.1670941718915159e-04 +0.0000000000000000e+00 +9.9999994984757101e-01
4.5000000000000000e+00 +6.4322712088786345e+00 +0.0000000000000000e+00 +4.4999999213131012e+00 -3.2390740607965147e-04 +0.0000000000000000e+00 +9.9999994754199450e-01
4.5999999999999996e+00 +6.4322384582383929e+00 +0.0000000000000000e+00 +4.5999999159498630e+00 -3.3110539950427780e-04 +0.0000000000000000e+00 +9.9999994518460544e-01
4.6999999999999993e+00 +6.4322049877985830e+00 +0.0000000000000000e+00 +4.6999999103482955e+00 -3.3830339743965462e-04 +0.0000000000000000e+00 +9.9999994277540372e-01
4.7999999999999989e+00 +6.4321707975587534e+00 +0.0000000000000000e+00 +4.7999999045032169e+00 -3.4550139990184098e-04 +0.0000000000000000e+00 +9.9999994031438921e-01
4.8999999999999986e+00 +6.4321358875184496e+00 +0.0000000000000000e+00 +4.8999998984094466e+00 -3.5269940694632353e-04 +0.0000000000000000e+00 +9.9999993780156193e-01
4.9999999999999982e+00 +6.4321002576772086e+00 +0.0000000000000000e+00 +4.9999998920618030e+00 -3.5989741866800860e-04 +0.0000000000000000e+00 +9.9999993523692166e-01
5.0999999999999979e+00 +6.4320639080345563e+00 +0.0000000000000000e+00 +5.0999998854551043e+00 -3.6709543519872760e-04 +0.0000000000000000e+00 +9.9999993262046816e-01
5.1999999999999975e+00 +6.4320268385900041e+00 +0.0000000000000000e+00 +5.1999998785841699e+00 -3.7429345667987901e-04 +0.0000000000000000e+00 +9.9999992995220144e-01
5.2999999999999972e+00 +6.4319890493430512e+00 +0.0000000000000000e+00 +5.2999998714438181e+00 -3.8149148323507421e-04 +0.0000000000000000e+00 +9.9999992723212117e-01
5.3999999999999968e+00 +6.4319505402931849e+00 +0.0000000000000000e+00 +5.3999998640288673e+00 -3.8868951496764877e-04 +0.0000000000000000e+00 +9.9999992446022734e-01
5.4999999999999964e+00 +6.4319113114398823e+00 +0.0000000000000000e+00 +5.4999998563341368e+00 -3.9588755196066043e-04 +0.0000000000000000e+00 +9.9999992163651974e-01
5.5999999999999961e+00 +6.4318713627826147e+00 +0.0000000000000000e+00 +5.5999998483544449e+00 -4.0308559427688711e-04 +0.0000000000000000e+00 +9.9999991876099825e-01
5.6999999999999957e+00 +6.4318306943208476e+00 +0.0000000000000000e+00 +5.6999998400846099e+00 -4.1028364195882443e-04 +0.0000000000000000e+00 +9.9999991583366277e-01
5.7999999999999954e+00 +6.4317893060540436e+00 +0.0000000000000000e+00 +5.7999998315194503e+00 -4.1748169502868373e-04 +0.0000000000000000e+00 +9.9999991285451306e-01
5.8999999999999950e+00 +6.4317471979816627e+00 +0.0000000000000000e+00 +5.8999998226537853e+00 -4.2467975348838959e-04 +0.0000000000000000e+00 +9.9999990982354914e-01
5.9999999999999947e+00 +6.4317043701031666e+00 +0.0000000000000000e+00 +5.9999998134824333e+00 -4.3187781731957747e-04 +0.0000000000000000e+00 +9.9999990674077077e-01
6.0999999999999943e+00 +6.4316608224180207e+00 +0.0000000000000000e+00 +6.0999998040002126e+00 -4.3907588648614559e-04 +0.0000000000000000e+00 +9.9999990360617796e-01
6.1999999999999940e+00 +6.4316165549256930e+00 +0.0000000000000000e+00 +6.1999997942019416e+00 -4.4627396096235143e-04 +0.0000000000000000e+00 +9.9999990041977060e-01
6.2999999999999936e+00 +6.4315715676256513e+00 +0.0000000000000000e+00 +6.2999997840824395e+00 -4.5347204076091635e-04 +0.0000000000000000e+00 +9.9999989718154847e-01
6.3999999999999932e+00 +6.4315258605173620e+00 +0.0000000000000000e+00 +6.3999997736365239e+00 -4.6067012593559197e-04 +0.0000000000000000e+00 +9.9999989389151156e-01
6.4999999999999929e+00 +6.4314794336002823e+00 +0.0000000000000000e+00 +6.4999997628590140e+00 -4.6786821658117278e-04 +0.0000000000000000e+00 +9.9999989054965965e-01
6.5999999999999925e+00 +6.4314322868738589e+00 +0.0000000000000000e+00 +6.5999997517447282e+00 -4.7506631283350976e-04 +0.0000000000000000e+00 +9.9999988715599253e-01
6.6999999999999922e+00 +6.4313844203375226e+00 +0.0000000000000000e+00 +6.6999997402884848e+00 -4.8226441486952409e-04 +0.0000000000000000e+00 +9.9999988371050996e-01
6.7999999999999918e+00 +6.4313358339906843e+00 +0.0000000000000000e+00 +6.7999997284851030e+00 -4.8946252290722151e-04 +0.0000000000000000e+00 +9.9999988021321184e-01
6.8999999999999915e+00 +6.4312865278327322e+00 +0.0000000000000000e+00 +6.8999997163294005e+00 -4.9666063720570715e-04 +0.0000000000000000e+00 +9.9999987666409784e-01
6.9999999999999911e+00 +6.4312365018630251e+00 +0.0000000000000000e+00 +6.9999997038161954e+00 -5.0385875806520136e-04 +0.0000000000000000e+00 +9.9999987306316762e-01
7.0999999999999908e+00 +6.4311857560808896e+00 +0.0000000000000000e+00 +7.0999996909403063e+00 -5.1105688582610373e-04 +0.0000000000000000e+00 +9.9999986941042096e-01
7.1999999999999904e+00 +6.4311342904856179e+00 +0.0000000000000000e+00 +7.1999996776965522e+00 -5.1825502085854245e-04 +0.0000000000000000e+00 +9.9999986570585742e-01
7.2999999999999901e+00 +6.4310821050764631e+00 +0.0000000000000000e+00 +7.2999996640797509e+00 -5.2545316355190720e-04 +0.0000000000000000e+00 +9.9999986194947665e-01
7.3999999999999897e+00 +6.4310291998526390e+00 +0.0000000000000000e+00 +7.3999996500847205e+00 -5.3265131431388718e-04 +0.0000000000000000e+00 +9.9999985814127834e-01
7.4999999999999893e+00 +6.4309755748133171e+00 +0.0000000000000000e+00 +7.4999996357062795e+00 -5.3984947357045890e-04 +0.0000000000000000e+00 +9.9999985428126204e-01
7.5999999999999890e+00 +6.4309212299576268e+00 +0.0000000000000000e+00 +7.5999996209392462e+00 -5.4704764176587378e-04 +0.0000000000000000e+00 +9.9999985036942729e-01
7.6999999999999886e+00 +6.4308661652846508e+00 +0.0000000000000000e+00 +7.6999996057784381e+00 -5.5424581936264520e-04 +0.0000000000000000e+00 +9.9999984640577377e-01
7.7999999999999883e+00 +6.4308103807934254e+00 +0.0000000000000000e+00 +7.7999995902186736e+00 -5.6144400684153518e-04 +0.0000000000000000e+00 +9.9999984239030093e-01
7.8999999999999879e+00 +6.4307538764829371e+00 +0.0000000000000000e+00 +7.8999995742547711e+00 -5.6864220470154050e-04 +0.0000000000000000e+00 +9.9999983832300821e-01
7.9999999999999876e+00 +6.4306966523521218e+00 +0.0000000000000000e+00 +7.9999995578815479e+00 -5.7584041345987863e-04 +0.0000000000000000e+00 +9.9999983420389515e-01
8.0999999999999872e+00 +6.4306387083998642e+00 +0.0000000000000000e+00 +8.0999995410938226e+00 -5.8303863364090474e-04 +0.0000000000000000e+00 +9.9999983003296122e-01
8.1999999999999869e+00 +6.4305800446249988e+00 +0.0000000000000000e+00 +8.1999995238864134e+00 -5.9023686565435143e-04 +0.0000000000000000e+00 +9.9999982581020586e-01
8.2999999999999865e+00 +6.4305206610263328e+00 +0.0000000000000000e+00 +8.2999995062541370e+00 -5.9743510967357610e-04 +0.0000000000000000e+00 +9.9999982153562872e-01
8.3999999999999861e+00 +6.4304605576026663e+00 +0.0000000000000000e+00 +8.3999994881918116e+00 -6.0463336562449545e-04 +0.0000000000000000e+00 +9.9999981720922970e-01
8.4999999999999858e+00 +6.4303997343528208e+00 +0.0000000000000000e+00 +8.4999994696942558e+00 -6.1183163318558813e-04 +0.0000000000000000e+00 +9.9999981283100858e-01
8.5999999999999854e+00 +6.4303381912756610e+00 +0.0000000000000000e+00 +8.5999994507562860e+00 -6.1902991178789768e-04 +0.0000000000000000e+00 +9.9999980840096558e-01
8.6999999999999851e+00 +6.4302759283701221e+00 +0.0000000000000000e+00 +8.6999994313727207e+00 -6.2622820061503548e-04 +0.0000000000000000e+00 +9.9999980391910093e-01
8.7999999999999847e+00 +6.4302129456352324e+00 +0.0000000000000000e+00 +8.7999994115383782e+00 -6.3342649860318378e-04 +0.0000000000000000e+00 +9.9999979938541506e-01
8.8999999999999844e+00 +6.4301492430701392e+00 +0.0000000000000000e+00 +8.8999993912480768e+00 -6.4062480444109903e-04 +0.0000000000000000e+00 +9.9999979479990864e-01
8.9999999999999840e+00 +6.4300848206741339e+00 +0.0000000000000000e+00 +8.9999993704966332e+00 -6.4782311657011517e-04 +0.0000000000000000e+00 +9.9999979016258256e-01
9.0999999999999837e+00 +6.4300196784466745e+00 +0.0000000000000000e+00 +9.0999993492788658e+00 -6.5502143320640010e-04 +0.0000000000000000e+00 +9.9999978547343782e-01
9.1999999999999833e+00 +6.4299538163874015e+00 +0.0000000000000000e+00 +9.1999993275895928e+00 -6.6221975258574689e-04 +0.0000000000000000e+00 +9.9999978073247542e-01
9.2999999999999829e+00 +6.4298872344961167e+00 +0.0000000000000000e+00 +9.2999993054236327e+00 -6.6941807320837455e-04 +0.0000000000000000e+00 +9.9999977593969636e-01
9.3999999999999826e+00 +6.4298199327727588e+00 +0.0000000000000000e+00 +9.3999992827758039e+00 -6.7661639386119550e-04 +0.0000000000000000e+00 +9.9999977109510141e-01
9.4999999999999822e+00 +6.4297519112173740e+00 +0.0000000000000000e+00 +9.4999992596409246e+00 -6.8381471361782969e-04 +0.0000000000000000e+00 +9.9999976619869124e-01
9.5999999999999819e+00 +6.4296831698300867e+00 +0.0000000000000000e+00 +9.5999992360138151e+00 -6.9101303183861918e-04 +0.0000000000000000e+00 +9.9999976125046630e-01
9.6999999999999815e+00 +6.4296137086110701e+00 +0.0000000000000000e+00 +9.6999992118892919e+00 -6.9821134817064283e-04 +0.0000000000000000e+00 +9.9999975625042681e-01
9.7999999999999812e+00 +6.4295435275605186e+00 +0.0000000000000000e+00 +9.7999991872621735e+00 -7.0540966254773146e-04 +0.0000000000000000e+00 +9.9999975119857287e-01
9.8999999999999808e+00 +6.4294726266786189e+00 +0.0000000000000000e+00 +9.8999991621272798e+00 -7.1260797519048357e-04 +0.0000000000000000e+00 +9.9999974609490450e-01
9.9999999999999805e+00 +6.4294010059655218e+00 +0.0000000000000000e+00 +9.9999991364794276e+00 -7.1980628660628116e-04 +0.0000000000000000e+00 +9.9999974093942123e-01
1.0099999999999980e+01 +6.4293286654213126e+00 +0.0000000000000000e+00 +1.0099999110313437e+01 -7.2700459756968564e-04 +0.0000000000000000e+00 +9.9999973573212253e-01
1.0199999999999980e+01 +6.4292556050459950e+00 +0.0000000000000000e+00 +1.0199999083624125e+01 -7.3420290890661858e-04 +0.0000000000000000e+00 +9.9999973047300783e-01
1.0299999999999979e+01 +6.4291818248394970e+00 +0.0000000000000000e+00 +1.0299999056406310e+01 -7.4140122127850261e-04 +0.0000000000000000e+00 +9.9999972516207669e-01
1.0399999999999979e+01 +6.4291073248016888e+00 +0.0000000000000000e+00 +1.0399999028654813e+01 -7.4859953516259346e-04 +0.0000000000000000e+00 +9.9999971979932867e-01
1.0499999999999979e+01 +6.4290321049324035e+00 +0.0000000000000000e+00 +1.0499999000364449e+01 -7.5579785085193069e-04 +0.0000000000000000e+00 +9.9999971438476343e-01
1.0599999999999978e+01 +6.4289561652314537e+00 +0.0000000000000000e+00 +1.0599998971530038e+01 -7.6299616845528742e-04 +0.0000000000000000e+00 +9.9999970891838097e-01
1.0699999999999978e+01 +6.4288795056986503e+00 +0.0000000000000000e+00 +1.0699998942146397e+01 -7.7019448789711906e-04 +0.0000000000000000e+00 +9.9999970340018129e-01
1.0799999999999978e+01 +6.4288021263338209e+00 +0.0000000000000000e+00 +1.0799998912208347e+01 -7.7739280891751057e-04 +0.0000000000000000e+00 +9.9999969783016451e-01
1.0899999999999977e+01 +6.4287240271368287e+00 +0.0000000000000000e+00 +1.0899998881710703e+01 -7.8459113107212251e-04 +0.0000000000000000e+00 +9.9999969220833096e-01
1.0999999999999977e+01 +6.4286452081075893e+00 +0.0000000000000000e+00 +1.0999998850648286e+01 -7.9178945373213616e-04 +0.0000000000000000e+00 +9.9999968653468119e-01
1.1099999999999977e+01 +6.4285656692460922e+00 +0.0000000000000000e+00 +1.1099998819015912e+01 -7.9898777610118020e-04 +0.0000000000000000e+00 +9.9999968080921575e-01
1.1199999999999976e+01 +6.4284854105524056e+00 +0.0000000000000000e+00 +1.1199998786808402e+01 -8.0618609740210490e-04 +0.0000000000000000e+00 +9.9999967503193521e-01
1.1299999999999976e+01 +6.4284044320266673e+00 +0.0000000000000000e+00 +1.1299998754020573e+01 -8.1338441706382770e-04 +0.0000000000000000e+00 +9.9999966920284011e-01
1.1399999999999975e+01 +6.4283227336690603e+00 +0.0000000000000000e+00 +1.1399998720647243e+01 -8.2058273473837836e-04 +0.0000000000000000e+00 +9.9999966332193080e-01
1.1499999999999975e+01 +6.4282403154797905e+00 +0.0000000000000000e+00 +1.1499998686683233e+01 -8.2778105030096346e-04 +0.0000000000000000e+00 +9.9999965738920749e-01
1.1599999999999975e+01 +6.4281571774590676e+00 +0.0000000000000000e+00 +1.1599998652123359e+01 -8.3497936385003280e-04 +0.0000000000000000e+00 +9.9999965140466995e-01
1.1699999999999974e+01 +6.4280733196070772e+00 +0.0000000000000000e+00 +1.1699998616962441e+01 -8.4217767570734657e-04 +0.0000000000000000e+00 +9.9999964536831809e-01
1.1799999999999974e+01 +6.4279887419239641e+00 +0.0000000000000000e+00 +1.1799998581195297e+01 -8.4937598641804477e-04 +0.0000000000000000e+00 +9.9999963928015145e-01
