# multipoles
# s[mm] polynom_b[n=0][T/m^n] polynom_b[n=1][T/m^n] polynom_b[n=2][T/m^n] polynom_b[n=3][T/m^n] polynom_b[n=4][T/m^n] polynom_b[n=5][T/m^n] polynom_b[n=6][T/m^n] 
+0.0000000000000000e+00 -1.1080409495702712e+00 +2.3891140212687492e+00 +2.0539737118050166e+01 -4.3270725370359784e+01 +2.6970507593181865e+04 +4.4874691902040719e+05 -1.0507242460566619e+08 
+1.0000000000000001e-01 -1.1080418544115651e+00 +2.3890552180274449e+00 +2.0535892754939379e+01 -4.2585914190054176e+01 +2.7063904320721558e+04 +4.4829655808344745e+05 -1.0567452581986420e+08 
+2.0000000000000001e-01 -1.1080427655203924e+00 +2.3889557972205457e+00 +2.0525675590726838e+01 -4.0891157933833505e+01 +2.7287615159098736e+04 +4.4169805081543868e+05 -1.0690809122952494e+08 
+3.0000000000000004e-01 -1.1080436873480219e+00 +2.3888207786901687e+00 +2.0510425938108771e+01 -3.8273928339181374e+01 +2.7612991961156040e+04 +4.2954378501484270e+05 -1.0863219398666064e+08 
+4.0000000000000002e-01 -1.1080446243455531e+00 +2.3886551823026041e+00 +2.0491484092362747e+01 -3.4821698089413644e+01 +2.8011386846081885e+04 +4.1242615522832546e+05 -1.1070590817302927e+08 
+5.0000000000000000e-01 -1.1080455809639727e+00 +2.3884640279443894e+00 +2.0470190335009754e+01 -3.0621940558556652e+01 +2.8454152145058768e+04 +3.9093756066141994e+05 -1.1298830863237090e+08 
+5.9999999999999998e-01 -1.1080465616542396e+00 +2.3882523355030298e+00 +2.0447884943464402e+01 -2.5762129077331622e+01 +2.8912640218569701e+04 +3.6567040017830412e+05 -1.1533847015025473e+08 
+6.9999999999999996e-01 -1.1080475708672308e+00 +2.3880251248678084e+00 +2.0425908180951591e+01 -2.0329736835736504e+01 +2.9358203659480001e+04 +3.3721707119436644e+05 -1.1761546849437843e+08 
+7.9999999999999993e-01 -1.1080486130538461e+00 +2.3877874159096355e+00 +2.0405600308344390e+01 -1.4412236103344837e+01 +2.9762195069148562e+04 +3.0616996435699431e+05 -1.1967837940052429e+08 
+8.9999999999999991e-01 -1.1080496926650842e+00 +2.3875442284762105e+00 +2.0388301590895612e+01 -8.0970979809052928e+00 +3.0095966943196770e+04 +2.7312146159065317e+05 -1.2138627811562358e+08 
+9.9999999999999989e-01 -1.1080508141520002e+00 +2.3873005823855342e+00 +2.0375352290629820e+01 -1.4717920232885819e+00 +3.0330871817112638e+04 +2.3866393312397547e+05 -1.2259824013507369e+08 
+1.0999999999999999e+00 -1.1080519818092214e+00 +2.3870607810474826e+00 +2.0367817575752220e+01 +5.3765226074806662e+00 +3.0444750357874782e+04 +2.0335601424878096e+05 -1.2320623771064347e+08 
+1.2000000000000000e+00 -1.1080531992221065e+00 +2.3868263366286335e+00 +2.0365656564835437e+01 +1.2359708282029073e+01 +3.0441634640537406e+04 +1.6763337627753193e+05 -1.2323473388708228e+08 
+1.3000000000000000e+00 -1.1080544697778132e+00 +2.3865980820902544e+00 +2.0368550394447858e+01 +1.9388825743816689e+01 +3.0332165799782997e+04 +1.3190391209593636e+05 -1.2274154853410739e+08 
+1.4000000000000001e+00 -1.1080557968635116e+00 +2.3863768503595786e+00 +2.0376180204032334e+01 +2.6374936685950466e+01 +3.0126985009973643e+04 +9.6575508370282085e+04 -1.2178450203090027e+08 
+1.5000000000000002e+00 -1.1080571838665201e+00 +2.3861634743132747e+00 +2.0388227156118884e+01 +3.3229104179488225e+01 +2.9836733102100123e+04 +6.2056043129381425e+04 -1.2042141345123728e+08 
+1.6000000000000003e+00 -1.1080586341741567e+00 +2.3859587867797649e+00 +2.0404372416857413e+01 +3.9862392517926473e+01 +2.9472050972459427e+04 +2.8753386849042003e+04 -1.1871010262182011e+08 
+1.7000000000000004e+00 -1.1080601511738735e+00 +2.3857636205310979e+00 +2.0424297175481051e+01 +4.6185867410272749e+01 +2.9043579221506632e+04 -2.9245986318043128e+03 -1.1670838843389599e+08 
+1.8000000000000005e+00 -1.1080617382532003e+00 +2.3855788082800093e+00 +2.0447682638346883e+01 +5.2110595973066395e+01 +2.8561958287521404e+04 -3.2570059881917852e+04 -1.1447408953839278e+08 
+1.9000000000000006e+00 -1.1080633987997841e+00 +2.3854051826663136e+00 +2.0474210034502196e+01 +5.7547647091275984e+01 +2.8037828367613351e+04 -5.9775153957811439e+04 -1.1206502405333412e+08 
+2.0000000000000004e+00 -1.1080651362013467e+00 +2.3852435762705961e+00 +2.0503560612623630e+01 +6.2408090928726999e+01 +2.7481829487374762e+04 -8.4132045261070743e+04 -1.0953900991941069e+08 
+2.1000000000000005e+00 -1.1080669513014314e+00 +2.3850953624635460e+00 +2.0535380322458451e+01 +6.6611465375432431e+01 +2.6903472952556305e+04 -1.0526798852329017e+05 -1.0694453976689257e+08 
+2.2000000000000006e+00 -1.1080688349952985e+00 +2.3849639893968919e+00 +2.0569197096632365e+01 +7.0114474485199807e+01 +2.6306944776592543e+04 -1.2296993025551290e+05 -1.0428890284486389e+08 
+2.3000000000000007e+00 -1.1080707757473802e+00 +2.3848534009850697e+00 +2.0604515118580785e+01 +7.2883979388955723e+01 +2.5694896455822753e+04 -1.3706970014483584e+05 -1.0156810681771582e+08 
+2.4000000000000008e+00 -1.1080727620224693e+00 +2.3847675412638676e+00 +2.0640838596094376e+01 +7.4886837855334264e+01 +2.5069979086623793e+04 -1.4739910866973078e+05 -9.8778157597090468e+07 
+2.5000000000000009e+00 -1.1080747822859398e+00 +2.3847103544143700e+00 +2.0677671785868061e+01 +7.6089903609418798e+01 +2.4434842903906097e+04 -1.5378994326884489e+05 -9.5915057135014266e+07 
+2.6000000000000010e+00 -1.1080768250035922e+00 +2.3846857847822260e+00 +2.0714518971805035e+01 +7.6460025799005294e+01 +2.3792137694734331e+04 -1.5607396524663433e+05 -9.2974805390422568e+07 
+2.7000000000000011e+00 -1.1080788786418017e+00 +2.3846977768924202e+00 +2.0750884481557520e+01 +7.5964048567680649e+01 +2.3144512476565946e+04 -1.5408290720823407e+05 -8.9953398764850289e+07 
+2.8000000000000012e+00 -1.1080809316675524e+00 +2.3847502754654539e+00 +2.0786272688335135e+01 +7.4568810613678963e+01 +2.2494615465418105e+04 -1.4764847050759310e+05 -8.6846829950400412e+07 
+2.9000000000000012e+00 -1.1080829725484200e+00 +2.3848472254324085e+00 +2.0820188006165189e+01 +7.2241144777583457e+01 +2.1845094163231719e+04 -1.3660232284949199e+05 -8.3651088327006802e+07 
+3.0000000000000013e+00 -1.1080849897526652e+00 +2.3849925719567011e+00 +2.0852134899574914e+01 +6.8947877430562230e+01 +2.1198595171245277e+04 -1.2077609499665038e+05 -8.0362159083475456e+07 
+3.1000000000000014e+00 -1.1080869738484169e+00 +2.3851877685909639e+00 +2.0881562662997656e+01 +6.4696562466322064e+01 +2.0561019799236579e+04 -1.0019748718242727e+05 -7.6997860539272338e+07 
+3.2000000000000015e+00 -1.1080889235033686e+00 +2.3854245047547562e+00 +2.0907721700133656e+01 +5.9649952439277534e+01 +1.9951111626355014e+04 -7.5627437992293111e+04 -7.3662655126282915e+07 
+3.3000000000000016e+00 -1.1080908393394608e+00 +2.3856920787970379e+00 +2.0929818436789596e+01 +5.4007648310945655e+01 +1.9390780351104990e+04 -4.7997372368121891e+04 -7.0482512651220024e+07 
+3.4000000000000017e+00 -1.1080927219776535e+00 +2.3859797889915098e+00 +2.0947059225541562e+01 +4.7969252439083675e+01 +1.8901936732384656e+04 -1.8238718460513886e+04 -6.7583407205614820e+07 
+3.5000000000000018e+00 -1.1080945720377140e+00 +2.3862769335184661e+00 +2.0958650321152653e+01 +4.1734369135004847e+01 +1.8506493030368241e+04 +1.2717089479220409e+04 -6.5091319211100936e+07 
+3.6000000000000019e+00 -1.1080963901382119e+00 +2.3865728104695463e+00 +2.0963797885910211e+01 +3.5502604444546549e+01 +1.8226362869897010e+04 +4.3938612829256606e+04 -6.3132234685610421e+07 
+3.7000000000000020e+00 -1.1080981768963127e+00 +2.3868567178292466e+00 +2.0961707965984015e+01 +2.9473566644001728e+01 +1.8083461669677468e+04 +7.4494406061407441e+04 -6.1832147239232153e+07 
+3.8000000000000020e+00 -1.1080999329277632e+00 +2.3871179534597635e+00 +2.0951586496372478e+01 +2.3846866628457377e+01 +1.8099706506621711e+04 +1.0345301486410639e+05 -6.1317057327981025e+07 
+3.9000000000000021e+00 -1.1081016588468262e+00 +2.3873458151022979e+00 +2.0932639295321522e+01 +1.8822117796793020e+01 +1.8297016200218761e+04 +1.2988297725737582e+05 -6.1712972603446178e+07 
+4.0000000000000018e+00 -1.1081033552660990e+00 +2.3875296003729112e+00 +2.0904072047950876e+01 +1.4598936147993783e+01 +1.8697311588053908e+04 +1.5285282368535583e+05 -6.3145909111040130e+07 
+4.1000000000000014e+00 -1.1081050253134788e+00 +2.3876619427016803e+00 +2.0865688714730297e+01 +1.1315338753682763e+01 +1.9310231453612261e+04 +1.7170812667263477e+05 -6.5680244159395449e+07 
+4.2000000000000011e+00 -1.1081066824697667e+00 +2.3877483486918831e+00 +2.0819613750297474e+01 +8.8765244848157145e+00 +2.0097534689010638e+04 +1.8681738002063008e+05 -6.9138938631341010e+07 
+4.3000000000000007e+00 -1.1081083428710470e+00 +2.3877974288835704e+00 +2.0768533772383137e+01 +7.1328723776601484e+00 +2.1009309361589800e+04 +1.9878337843091344e+05 -7.3285780267871395e+07 
+4.4000000000000004e+00 -1.1081100226544134e+00 +2.3878177936407181e+00 +2.0715135466090331e+01 +5.9347661814399153e+00 +2.1995642680353340e+04 +2.0820889099154528e+05 -7.7884553458466515e+07 
+4.5000000000000000e+00 -1.1081117379580188e+00 +2.3878180531391813e+00 +2.0662105587496004e+01 +5.1325945375838158e+00 +2.3006620973655725e+04 +2.1569666084543784e+05 -8.2699039279925317e+07 
+4.5999999999999996e+00 -1.1081135049211941e+00 +2.3878068173556750e+00 +2.0612130974205588e+01 +4.5767512615716184e+00 +2.3992329516137106e+04 +2.2184940364582499e+05 -8.7493014719335467e+07 
+4.6999999999999993e+00 -1.1081153396844470e+00 +2.3877926960684848e+00 +2.0567898540146011e+01 +4.1176353313908480e+00 +2.4902852664961491e+04 +2.2726980758911013e+05 -9.2030253399728209e+07 
+4.7999999999999989e+00 -1.1081172583896060e+00 +2.3877842988383295e+00 +2.0532095291597198e+01 +3.6056513961481826e+00 +2.5688273574957740e+04 +2.3256053059415665e+05 -9.6074524255910769e+07 
+4.8999999999999986e+00 -1.1081192771798729e+00 +2.3877902349961637e+00 +2.0507408327701881e+01 +2.8912101397943011e+00 +2.6298674228874832e+04 +2.3832419813435353e+05 -9.9389591761388972e+07 
+4.9999999999999982e+00 -1.1081214121998593e+00 +2.3878191136370179e+00 +2.0496524840994791e+01 +1.8247281775403290e+00 +2.6684135428132136e+04 +2.4516340482489197e+05 -1.0173921581613465e+08 
+5.0999999999999979e+00 -1.1081236725223955e+00 +2.3878769897938419e+00 +2.0501228688357635e+01 +3.0359046248225913e-01 +2.6810086793958533e+04 +2.5348940679858418e+05 -1.0295492340587120e+08 
+5.1999999999999975e+00 -1.1081260385725724e+00 +2.3879601668534693e+00 +2.0519747775182246e+01 -1.5951120228928470e+00 +2.6702387075644157e+04 +2.6298671585709235e+05 -1.0313629294163136e+08 
+5.2999999999999972e+00 -1.1081284835263687e+00 +2.3880626235107951e+00 +2.0549434521918183e+01 -3.7514282361739806e+00 +2.6401775159424200e+04 +2.7316845780366904e+05 -1.0244923072972000e+08 
+5.3999999999999968e+00 -1.1081309805589024e+00 +2.3881783388213793e+00 +2.0587641287006715e+01 -6.0454146208732995e+00 +2.5948990607483429e+04 +2.8354778476058244e+05 -1.0105964519271287e+08 
+5.4999999999999964e+00 -1.1081335028442967e+00 +2.3883012922082192e+00 +2.0631720355296675e+01 -8.3571350641547930e+00 +2.5384773824950604e+04 +2.9363787291815085e+05 -9.9133447447396696e+07 
+5.5999999999999961e+00 -1.1081360235556701e+00 +2.3884254634922248e+00 +2.0679023937204224e+01 -1.0566661606972843e+01 +2.4749866061100125e+04 +3.0295192570007703e+05 -9.6836551279678136e+07 
+5.6999999999999957e+00 -1.1081385158650803e+00 +2.3885448328983272e+00 +2.0726904165139359e+01 -1.2554074446793074e+01 +2.4085009444817588e+04 +3.1100317278017383e+05 -9.4334873237560421e+07 
+5.7999999999999954e+00 -1.1081409529435133e+00 +2.3886533810866464e+00 +2.0772713095343676e+01 -1.4199462725219675e+01 +2.3430946919662932e+04 +3.1730487387319445e+05 -9.1794332252610236e+07 
+5.8999999999999950e+00 -1.1081433079607521e+00 +2.3887450891624007e+00 +2.0813802692861898e+01 -1.5382924622821694e+01 +2.2828422509262189e+04 +3.2137031824581220e+05 -8.9380850860474244e+07 
+5.9999999999999947e+00 -1.1081455540853895e+00 +2.3888139386931222e+00 +2.0847524837291488e+01 -1.5984567365688575e+01 +2.2318181205402438e+04 +3.2271282102461666e+05 -8.7260354872757792e+07 
+6.0999999999999943e+00 -1.1081476711807774e+00 +2.3888554441094736e+00 +2.0871765387816144e+01 -1.5918634132086972e+01 +2.1933069739212253e+04 +3.2099547855335398e+05 -8.5568549748620704e+07 
+6.1999999999999940e+00 -1.1081496662946508e+00 +2.3888711889214109e+00 +2.0886524003293260e+01 -1.5238460267344104e+01 +2.1674979179257960e+04 +3.1651467968208430e+05 -8.4322572242050901e+07 
+6.2999999999999936e+00 -1.1081515533746078e+00 +2.3888642620248470e+00 +2.0892323832726220e+01 -1.4032857651172071e+01 +2.1538221160863432e+04 +3.0973354904607683e+05 -8.3510560481978938e+07 
+6.3999999999999932e+00 -1.1081533463688509e+00 +2.3888377522462076e+00 +2.0889688090033545e+01 -1.2390637859659366e+01 +2.1517106398903492e+04 +3.0111522153355199e+05 -8.3120649407304704e+07 
+6.4999999999999929e+00 -1.1081550592261744e+00 +2.3887947483273102e+00 +2.0879140055365404e+01 -1.0400611633836837e+01 +2.1605944634008632e+04 +2.9112283961593092e+05 -8.3140970459642127e+07 
+6.5999999999999925e+00 -1.1081567058960233e+00 +2.3887383389152781e+00 +2.0861203078705593e+01 -8.1515886776494675e+00 +2.1799044596518270e+04 +2.8021955281345436e+05 -8.3559651511068419e+07 
+6.6999999999999922e+00 -1.1081583003284881e+00 +2.3886716125685199e+00 +2.0836400581506350e+01 -5.7323779109629802e+00 +2.2090713973443009e+04 +2.6886851973182283e+05 -8.4364816717524186e+07 
+6.7999999999999918e+00 -1.1081598564743962e+00 +2.3885976577386443e+00 +2.0805256066402858e+01 -3.2317870211859381e+00 +2.2475259243424840e+04 +2.5753290605464517e+05 -8.5544585798984334e+07 
+6.8999999999999915e+00 -1.1081613882852797e+00 +2.3885195627764122e+00 +2.0768293112526965e+01 -7.3862272617030011e-01 +2.2946985780634983e+04 +2.4667588667151143e+05 -8.7087074589038134e+07 
+6.9999999999999911e+00 -1.1081629097134182e+00 +2.3884404159137658e+00 +2.0726035380963403e+01 +1.6583100431120621e+00 +2.3500197812945695e+04 +2.3676064169077473e+05 -8.8980394952348202e+07 
+7.0999999999999908e+00 -1.1081644333241150e+00 +2.3883631198371211e+00 +2.0679149919192874e+01 +3.8804841751181582e+00 +2.4126808893783331e+04 +2.2816955527435549e+05 -9.1201448806933910e+07 
+7.1999999999999904e+00 -1.1081659656814427e+00 +2.3882895704360458e+00 +2.0628826405630750e+01 +5.8929568843578695e+00 +2.4809827171515451e+04 +2.2094160304501251e+05 -9.3683669884327486e+07 
+7.2999999999999901e+00 -1.1081675117254919e+00 +2.3882213451705465e+00 +2.0576371929763599e+01 +7.6724065347410804e+00 +2.5530220099529120e+04 +2.1502360316290453e+05 -9.6350041411876023e+07 
+7.3999999999999897e+00 -1.1081690763963250e+00 +2.3881600211966831e+00 +2.0523093531938866e+01 +9.1955178838685896e+00 +2.6268956782265628e+04 +2.1036234369879731e+05 -9.9123555672434375e+07 
+7.4999999999999893e+00 -1.1081706646340093e+00 +2.3881071753570766e+00 +2.0470298204684916e+01 +1.0438982102914041e+01 +2.7007007980412021e+04 +2.0690458722630289e+05 -1.0192721443862219e+08 
+7.5999999999999890e+00 -1.1081722813786303e+00 +2.3880643841671723e+00 +2.0419292894450528e+01 +1.1379497071192841e+01 +2.7725346092811600e+04 +2.0459706950973492e+05 -1.0468402891524267e+08 
+7.6999999999999886e+00 -1.1081739315702783e+00 +2.3880332238089914e+00 +2.0371384496738951e+01 +1.1993767494562119e+01 +2.8404945282456345e+04 +2.0338649913219342e+05 -1.0731702041306445e+08 
+7.7999999999999883e+00 -1.1081756201490414e+00 +2.3880152701148081e+00 +2.0327879854460104e+01 +1.2258505263060712e+01 +2.9026781526737432e+04 +2.0321955586326314e+05 -1.0974922062365919e+08 
+7.8999999999999879e+00 -1.1081773520550418e+00 +2.3880120985608406e+00 +2.0290085760697163e+01 +1.2150429557748099e+01 +2.9571832591020229e+04 +2.0404289038917894e+05 -1.1190367154931878e+08 
+7.9999999999999876e+00 -1.1081791322282895e+00 +2.3880252842355723e+00 +2.0259308933728335e+01 +1.1646266697993731e+01 +3.0021078464601658e+04 +2.0580313355869096e+05 -1.1370342689338058e+08 
+8.0999999999999872e+00 -1.1081809622283139e+00 +2.3880558661707090e+00 +2.0236409207945499e+01 +1.0733148900087290e+01 +3.0362226166134162e+04 +2.0845934960357775e+05 -1.1509874458391596e+08 
+8.1999999999999869e+00 -1.1081828312597908e+00 +2.3881029779959975e+00 +2.0220659590653852e+01 +9.4409217788755537e+00 +3.0605800365711180e+04 +2.1200780842358459e+05 -1.1613280164625445e+08 
+8.2999999999999865e+00 -1.1081847257474338e+00 +2.3881653233059366e+00 +2.0210988040723482e+01 +7.8106439899948024e+00 +3.0766952360885196e+04 +2.1645200710844909e+05 -1.1686774532308428e+08 
+8.3999999999999861e+00 -1.1081866321168106e+00 +2.3882416058147053e+00 +2.0206322693422429e+01 +5.8833742104987730e+00 +3.0860828476939601e+04 +2.2179544083896113e+05 -1.1736569523275301e+08 
+8.4999999999999858e+00 -1.1081885367942856e+00 +2.3883305294103190e+00 +2.0205591846389844e+01 +3.7001697670664622e+00 +3.0902570396780207e+04 +2.2804159888814404e+05 -1.1768874411693513e+08 
+8.5999999999999854e+00 -1.1081904262069939e+00 +2.3884307981572812e+00 +2.0207723959400948e+01 +1.3020866667394460e+00 +3.0907315106312828e+04 +2.3519396400221161e+05 -1.1789895740156542e+08 
+8.6999999999999851e+00 -1.1081922867828558e+00 +2.3885411163090726e+00 +2.0211647658372524e+01 -1.2698206360125834e+00 +3.0890194771452458e+04 +2.4325601328553847e+05 -1.1805837247073039e+08 
+8.7999999999999847e+00 -1.1081941049506143e+00 +2.3886601883105492e+00 +2.0216291741148787e+01 -3.9744991951532436e+00 +3.0866336584312387e+04 +2.5223121747432719e+05 -1.1822899780057529e+08 
+8.8999999999999844e+00 -1.1081958671398757e+00 +2.3887867188103451e+00 +2.0220585185445728e+01 -6.7708978205244472e+00 +3.0850862559523419e+04 +2.6212304194553255e+05 -1.1847281183097216e+08 
+8.9999999999999840e+00 -1.1081975597812666e+00 +2.3889194127510787e+00 +2.0223457182913183e+01 -9.6179699446636313e+00 +3.0858888662238649e+04 +2.7293495683949220e+05 -1.1885175875705561e+08 
+9.0999999999999837e+00 -1.1081991766986978e+00 +2.3890567081627867e+00 +2.0224283460178864e+01 -1.2472819159960311e+01 +3.0898403896993292e+04 +2.8461913371984847e+05 -1.1939554835314403e+08 
+9.1999999999999833e+00 -1.1082007390789210e+00 +2.3891959373967557e+00 +2.0223933634161515e+01 -1.5281012501933134e+01 +3.0955055537160104e+04 +2.9688053573508759e+05 -1.2003199440806845e+08 
+9.2999999999999829e+00 -1.1082022743908517e+00 +2.3893341695841772e+00 +2.0223576897404769e+01 -1.7984838089049060e+01 +3.1010448812981598e+04 +3.0935291910266853e+05 -1.2067008385991120e+08 
+9.3999999999999826e+00 -1.1082038101014906e+00 +2.3894684736652034e+00 +2.0224382190004686e+01 -2.0526580270181224e+01 +3.1046194336270382e+04 +3.2166999407914188e+05 -1.2121883023314074e+08 
+9.4999999999999822e+00 -1.1082053736760689e+00 +2.3895959183059734e+00 +2.0227518229335526e+01 -2.2848518085276474e+01 +3.1043907488337121e+04 +3.3346543203132774e+05 -1.2158727190332131e+08 
+9.5999999999999819e+00 -1.1082069925780724e+00 +2.3897135718961566e+00 +2.0234153513132238e+01 -2.4892925289912867e+01 +3.0985208381955919e+04 +3.4437286542579147e+05 -1.2168447199523662e+08 
+9.6999999999999815e+00 -1.1082086942691229e+00 +2.3898185025401646e+00 +2.0245456303136837e+01 -2.6602070154395566e+01 +3.0851722196300358e+04 +3.5402588641802903e+05 -1.2141952006221360e+08 
+9.7999999999999812e+00 -1.1082105062089715e+00 +2.3899077780468136e+00 +2.0262594626723768e+01 -2.7918215240972472e+01 +3.0625079146612097e+04 +3.6205804536659119e+05 -1.2070153196363209e+08 
+9.8999999999999808e+00 -1.1082124558554320e+00 +2.3899784659339174e+00 +2.0286736265761494e+01 -2.8783617608694755e+01 +3.0286914733541122e+04 +3.6810285182191321e+05 -1.1943965117701851e+08 
+9.9999999999999805e+00 -1.1082145706641517e+00 +2.3900276332197943e+00 +2.0319048711332645e+01 -2.9140519792709785e+01 +2.9818871074830135e+04 +3.7179370486552711e+05 -1.1754305751359031e+08 
+1.0099999999999980e+01 -1.1082168661138849e+00 +2.3900533846573349e+00 +2.0360059366516094e+01 -2.8949947838195449e+01 +2.9213098135342621e+04 +3.7283466797451553e+05 -1.1497210747299615e+08 
